834.788 178.400
834.204 185.400
833.621 181.200
833.037 183.800
832.453 187.600
831.870 183.200
831.286 194.400
830.702 183.600
830.118 184.000
829.535 184.800
828.950 187.200
828.367 180.800
827.782 191.600
827.198 186.000
826.615 186.800
826.030 188.600
825.446 191.400
824.861 188.100
824.277 182.400
823.692 186.000
823.109 185.000
822.523 183.000
821.940 190.000
821.354 179.600
820.770 188.400
820.185 186.600
819.601 181.200
819.016 174.200
818.431 185.000
817.846 185.400
817.261 186.600
816.677 194.800
816.091 187.400
815.506 191.200
814.922 191.200
814.336 177.400
813.750 184.200
813.166 188.200
812.580 185.400
811.995 189.000
811.410 178.800
810.824 185.400
810.239 184.600
809.653 190.200
809.068 179.000
808.482 187.000
807.896 186.400
807.310 183.000
806.724 176.400
806.139 188.400
805.553 180.400
804.967 187.400
804.381 184.200
803.795 193.600
803.209 188.000
802.624 188.000
802.037 191.600
801.451 187.600
800.865 193.200
800.278 183.800
799.692 186.800
799.105 179.800
798.519 184.800
797.932 189.400
797.346 189.400
796.759 186.400
796.173 188.200
795.586 187.600
794.999 182.400
794.412 174.000
793.826 181.600
793.239 188.400
792.652 194.000
792.065 188.000
791.478 191.000
790.891 190.800
790.303 176.000
789.716 183.800
789.129 192.200
788.542 198.600
787.955 193.800
787.368 184.800
786.781 184.000
786.192 192.200
785.605 188.000
785.018 186.800
784.430 186.800
783.842 191.000
783.254 189.200
782.667 189.600
782.079 191.400
781.491 179.000
780.903 201.600
780.316 189.000
779.727 187.200
779.139 204.400
778.551 191.800
777.963 186.400
777.375 189.400
776.787 190.400
776.198 189.200
775.610 192.000
775.022 188.000
774.433 191.400
773.845 190.600
773.256 192.600
772.668 187.200
772.079 187.800
771.491 191.800
770.901 189.000
770.313 198.800
769.724 193.000
769.136 188.800
768.546 190.400
767.958 186.800
767.368 188.400
766.780 182.600
766.190 185.600
765.602 178.800
765.012 198.200
764.422 187.200
763.834 196.000
763.244 195.200
762.655 194.000
762.066 194.200
761.476 192.800
760.887 192.600
760.297 185.400
759.707 197.200
759.117 192.000
758.528 189.400
757.938 189.800
757.348 204.400
756.759 185.800
756.169 197.600
755.578 200.800
754.988 200.400
754.398 190.800
753.809 196.200
753.218 192.600
752.628 198.200
752.037 190.400
751.447 198.000
750.858 189.000
750.267 200.000
749.676 197.200
749.086 192.200
748.495 187.800
747.904 195.200
747.314 198.000
746.723 191.400
746.132 196.200
745.541 191.000
744.950 203.600
744.360 182.200
743.769 198.000
743.178 202.800
742.587 195.000
741.996 202.400
741.404 201.400
740.813 193.000
740.222 198.000
739.631 191.000
739.040 197.600
738.449 198.200
737.857 201.000
737.266 193.600
736.674 203.400
736.083 203.600
735.490 200.000
734.899 207.200
734.307 198.600
733.716 204.800
733.124 204.400
732.533 205.400
731.940 212.000
731.348 207.000
730.756 202.200
730.165 203.400
729.572 201.600
728.980 198.000
728.388 199.800
727.796 207.600
727.203 207.000
726.611 211.400
726.019 207.400
725.426 196.000
724.834 209.200
724.242 203.400
723.648 197.400
723.056 204.000
722.464 213.400
721.870 209.400
721.278 205.600
720.685 219.200
720.092 209.200
719.500 214.200
718.906 215.000
718.314 212.800
717.720 205.600
717.127 207.400
716.534 213.800
715.941 209.600
715.347 205.600
714.755 209.200
714.161 211.600
713.568 218.800
712.974 212.200
712.380 206.000
711.787 210.000
711.193 211.200
710.600 216.600
710.006 215.600
709.412 211.800
708.819 216.000
708.224 219.800
707.631 222.000
707.037 212.400
706.443 224.800
705.848 226.400
705.255 223.000
704.660 215.200
704.066 245.400
703.472 226.600
702.878 217.800
702.283 207.000
701.689 218.200
701.095 225.400
700.500 222.600
699.906 224.600
699.311 218.400
698.716 216.000
698.122 222.400
697.527 217.800
696.932 235.600
696.337 227.200
695.742 236.400
695.147 243.600
694.552 228.400
693.957 238.400
693.363 237.800
692.768 238.000
692.173 227.600
691.578 237.200
690.982 234.000
690.387 244.400
689.791 231.600
689.196 247.200
688.601 237.600
688.005 245.600
687.410 245.000
686.814 238.800
686.218 238.200
685.623 235.200
685.027 236.800
684.431 243.000
683.835 240.000
683.239 231.000
682.643 239.600
682.047 240.600
681.451 253.800
680.855 250.400
680.259 250.000
679.663 236.200
679.066 244.200
678.470 243.400
677.874 251.400
677.278 241.600
676.682 258.600
676.084 254.600
675.488 259.400
674.892 248.800
674.296 255.800
673.698 257.800
673.102 254.400
672.505 250.600
671.908 265.400
671.311 253.800
670.715 261.200
670.117 270.600
669.520 258.800
668.924 269.400
668.326 266.800
667.729 267.800
667.132 270.000
666.534 275.400
665.937 264.200
665.339 271.200
664.743 264.600
664.146 275.200
663.548 277.400
662.950 278.600
662.352 280.600
661.755 265.400
661.157 268.800
660.560 270.200
659.961 258.200
659.364 269.000
658.766 254.200
658.168 264.000
657.570 264.200
656.971 260.200
656.374 262.400
655.775 268.800
655.178 255.400
654.579 271.000
653.980 261.200
653.383 255.400
652.784 263.600
652.185 256.000
651.588 242.800
650.989 261.000
650.390 258.000
649.792 250.800
649.193 246.800
648.594 250.800
647.996 260.200
647.397 255.600
646.798 244.600
646.199 257.000
645.599 256.400
645.001 244.400
644.402 254.400
643.803 252.000
643.203 245.400
642.604 250.200
642.006 249.000
641.406 245.800
640.806 247.400
640.207 240.400
639.607 245.400
639.008 249.400
638.408 245.600
637.808 242.400
637.210 252.600
636.610 248.400
636.010 253.600
635.410 240.600
634.810 239.000
634.211 244.200
633.611 246.800
633.011 248.600
632.411 244.400
631.810 244.800
631.210 235.000
630.610 235.600
630.010 245.800
629.410 245.600
628.808 246.400
628.208 229.800
627.608 222.000
627.007 234.800
626.407 245.800
625.807 245.400
625.206 241.200
624.606 234.600
624.004 241.200
623.403 246.400
622.803 240.400
622.202 239.400
621.601 242.800
620.999 234.600
620.399 246.600
619.798 241.800
619.197 235.000
618.596 227.800
617.994 243.400
617.393 243.600
616.792 227.600
616.190 233.400
615.589 236.000
614.988 234.800
614.385 230.800
613.784 240.600
613.183 232.400
612.581 236.200
611.979 250.000
611.378 234.800
610.776 235.800
610.174 239.600
609.572 234.600
608.970 246.000
608.369 227.800
607.766 240.000
607.164 245.600
606.561 242.400
605.960 240.600
605.357 231.200
604.755 233.200
604.152 230.800
603.551 239.200
602.948 227.000
602.346 239.000
601.743 243.200
601.139 237.600
600.537 235.400
599.934 227.400
599.332 229.200
598.729 240.600
598.126 238.800
597.524 229.400
596.920 241.000
596.318 230.000
595.715 232.200
595.111 240.400
594.509 239.000
593.905 242.600
593.301 230.800
592.698 229.000
592.095 230.800
591.492 236.800
590.888 225.200
590.285 235.600
589.681 239.200
589.078 227.000
588.474 233.000
587.870 233.800
587.267 238.800
586.663 232.200
586.059 235.200
585.455 232.600
584.851 216.000
584.247 227.600
583.644 230.200
583.039 231.800
582.435 234.400
581.831 226.600
581.227 232.200
580.622 226.800
580.018 219.000
579.413 215.400
578.809 229.200
578.204 230.000
577.600 235.200
576.995 218.000
576.390 226.600
575.786 225.400
575.181 229.600
574.576 224.400
573.972 224.400
573.367 221.600
572.762 232.000
572.157 225.200
571.552 225.600
570.947 227.800
570.342 231.600
569.737 222.600
569.131 222.200
568.526 230.000
567.921 219.000
567.315 222.200
566.710 223.200
566.105 228.000
565.498 234.400
564.893 220.600
564.288 227.600
563.682 213.000
563.077 222.400
562.470 207.400
561.865 211.200
561.259 219.200
560.654 229.400
560.047 225.400
559.441 221.400
558.835 227.800
558.228 215.800
557.623 228.400
557.017 223.800
556.410 211.600
555.804 228.600
555.198 227.600
554.591 221.800
553.985 219.200
553.379 212.000
552.772 217.600
552.165 206.000
551.558 212.600
550.952 213.000
550.344 221.400
549.738 217.800
549.131 215.600
548.524 211.000
547.918 203.800
547.310 219.200
546.704 220.800
546.096 216.200
545.489 216.800
544.882 207.400
544.274 218.400
543.668 213.800
543.060 217.800
542.453 211.800
541.845 219.000
541.237 223.200
540.630 216.600
540.022 218.400
539.415 203.200
538.807 219.000
538.199 211.000
537.592 217.600
536.984 227.200
536.376 222.600
535.768 216.400
535.160 218.200
534.552 213.400
533.943 220.200
533.336 223.400
532.728 215.400
532.119 216.000
531.510 218.200
530.903 222.800
530.294 223.800
529.686 212.800
529.077 214.000
528.468 219.400
527.859 220.200
527.252 228.600
526.643 221.000
526.034 215.400
525.425 220.200
524.816 215.200
524.207 210.600
523.598 215.600
522.989 214.600
522.380 217.600
521.772 216.000
521.163 212.000
520.553 212.600
519.944 212.400
519.335 221.800
518.725 217.000
518.116 215.400
517.507 221.000
516.897 217.000
516.288 208.600
515.678 213.400
515.069 207.200
514.458 223.600
513.848 208.800
513.238 225.400
512.629 224.700
512.019 218.600
511.409 212.000
510.799 211.200
510.189 210.800
509.579 221.400
508.968 225.000
508.358 220.600
507.748 224.200
507.138 226.000
506.528 218.600
505.918 220.200
505.307 222.400
504.696 227.600
504.086 214.200
503.476 226.200
502.864 217.600
502.254 212.800
501.644 223.400
501.032 220.600
500.421 220.400
499.811 223.600
499.200 217.800
498.589 225.400
497.978 223.000
497.367 226.200
496.755 214.600
496.145 221.400
495.533 224.600
494.922 229.600
494.311 224.000
493.699 212.400
493.088 209.400
492.476 219.400
491.865 221.000
491.253 232.000
490.641 224.800
490.029 216.600
489.418 223.600
488.806 228.000
488.194 229.200
487.582 232.200
486.971 229.200
486.358 218.200
485.747 236.400
485.134 221.600
484.523 232.200
483.910 225.600
483.298 235.800
482.686 226.000
482.073 228.200
481.461 219.200
480.848 231.000
480.235 229.600
479.624 227.800
479.011 234.200
478.398 239.200
477.786 228.200
477.173 245.000
476.560 232.000
475.948 234.800
475.334 238.400
474.721 227.200
474.108 226.400
473.496 230.600
472.882 241.000
472.269 231.400
471.655 241.800
471.043 247.000
470.430 228.400
469.816 238.000
469.202 235.800
468.589 236.800
467.975 237.400
467.363 248.600
466.749 237.800
466.135 233.400
465.521 225.800
464.907 236.000
464.293 234.800
463.680 233.400
463.066 229.200
462.452 225.200
461.838 227.600
461.223 233.400
460.609 234.000
459.996 223.600
459.382 237.000
458.768 227.000
458.154 238.000
457.538 237.000
456.924 224.000
456.309 222.600
455.695 229.600
455.080 239.600
454.466 231.800
453.851 236.200
453.237 238.200
452.622 224.400
452.008 225.600
451.393 225.600
450.778 228.400
450.162 220.600
449.547 237.200
448.932 233.400
448.318 222.200
447.703 220.200
447.088 228.600
446.472 232.400
445.856 231.400
445.241 231.800
444.626 225.800
444.010 220.800
443.395 230.000
442.780 225.400
442.164 238.800
441.548 239.000
440.932 226.000
440.317 227.200
439.700 223.000
439.085 221.000
438.469 233.200
437.853 236.400
437.237 231.800
436.622 239.800
436.005 231.400
435.389 225.200
434.773 222.000
434.156 227.400
433.541 229.400
432.923 238.000
432.308 233.400
431.690 241.800
431.075 231.000
430.457 238.200
429.841 234.200
429.225 232.400
428.608 238.200
427.992 232.200
427.374 247.200
426.757 236.400
426.141 230.200
425.523 239.200
424.907 242.600
424.289 233.400
423.673 235.800
423.055 232.400
422.438 255.400
421.821 243.600
421.203 244.600
420.587 247.200
419.969 254.800
419.351 245.400
418.734 240.600
418.116 248.200
417.498 246.600
416.882 252.000
416.263 244.200
415.645 257.400
415.027 236.800
414.410 249.000
413.792 251.000
413.174 254.400
412.555 251.200
411.938 266.400
411.320 253.200
410.702 257.200
410.083 251.000
409.466 259.000
408.847 259.400
408.229 252.000
407.610 260.000
406.991 265.000
406.373 254.800
405.754 252.200
405.136 265.800
404.518 258.400
403.899 261.200
403.280 273.200
402.661 273.000
402.042 260.800
401.423 263.600
400.804 270.200
400.185 263.400
399.566 266.200
398.947 272.200
398.328 273.200
397.708 275.400
397.089 259.800
396.470 268.400
395.850 270.200
395.231 264.400
394.612 264.000
393.992 276.000
393.373 275.400
392.753 278.600
392.134 275.400
391.514 279.000
390.893 285.200
390.273 275.600
389.654 282.800
389.034 286.600
388.414 283.800
387.794 271.400
387.174 277.200
386.553 290.600
385.933 285.400
385.313 286.600
384.693 297.800
384.072 278.600
383.452 301.800
382.832 287.600
382.212 309.400
381.590 305.400
380.970 297.000
380.350 305.600
379.729 332.800
379.108 332.200
378.487 342.000
377.867 357.200
377.245 352.600
376.625 361.000
376.004 374.800
375.382 376.600
374.762 392.200
374.141 408.000
373.519 420.800
372.898 437.000
372.276 437.600
371.655 452.600
371.033 450.600
370.412 450.000
369.791 463.400
369.169 462.000
368.548 475.800
367.926 458.400
367.305 465.000
366.682 496.000
366.061 495.800
365.439 505.400
364.818 506.800
364.195 509.800
363.573 497.800
362.951 525.200
362.329 536.000
361.707 514.600
361.084 537.400
360.462 558.800
359.840 567.200
359.217 558.200
358.596 572.800
357.973 600.200
357.350 601.800
356.728 614.000
356.105 606.200
355.482 645.200
354.860 650.200
354.237 656.800
353.614 644.800
352.991 670.200
352.369 681.000
351.745 688.800
351.122 720.400
350.499 703.200
349.876 725.800
349.253 746.200
348.629 728.400
348.006 754.800
347.382 770.000
346.760 776.600
346.136 805.800
345.513 806.800
344.889 859.000
344.265 827.600
343.641 914.600
343.018 942.000
342.395 997.800
341.771 1048.600
341.147 1114.200
340.523 1223.200
339.899 1318.600
339.275 1432.800
338.651 1567.200
338.027 1636.800
337.403 1720.600
336.778 1798.000
336.154 1818.400
335.530 1747.000
334.905 1720.800
334.281 1615.400
333.657 1508.800
333.032 1450.000
332.408 1331.200
331.783 1251.200
331.159 1190.600
330.534 1101.400
329.909 1061.400
329.285 983.200
328.659 958.800
328.034 891.800
327.409 847.400
326.784 840.000
326.159 814.800
325.535 749.600
324.910 744.600
324.283 728.800
323.658 691.800
323.033 663.400
322.408 640.800
321.783 649.800
321.157 618.000
320.531 598.800
319.906 601.000
319.281 596.800
318.654 567.200
318.029 565.200
317.403 560.200
316.777 543.200
316.151 528.000
315.526 543.800
314.899 511.400
314.273 523.200
313.648 508.400
313.021 506.600
312.395 515.800
311.769 492.600
311.142 496.600
310.516 480.200
309.889 492.200
309.263 475.800
308.637 485.800
308.010 482.000
307.384 478.800
306.757 479.600
306.131 469.000
305.503 469.600
304.877 475.600
304.249 460.000
303.623 482.000
302.996 478.800
302.369 465.200
301.742 480.800
301.115 481.600
300.487 471.400
299.861 472.200
299.233 473.200
298.605 487.800
297.979 484.400
297.351 480.600
296.724 489.000
296.096 483.800
295.468 488.000
294.841 484.600
294.213 502.200
293.585 492.600
292.958 501.200
292.330 517.200
291.702 504.000
291.075 509.600
290.446 526.600
289.818 519.600
289.189 512.600
288.562 541.600
287.934 533.600
287.305 534.000
286.677 537.400
286.049 530.600
285.421 539.400
284.792 540.200
284.163 529.400
283.534 499.200
282.907 499.400
282.278 502.400
281.649 487.600
281.020 476.000
280.391 470.200
279.762 480.000
279.133 479.200
278.505 480.600
277.876 466.000
277.247 457.600
276.618 443.400
275.989 441.200
275.359 443.600
274.730 451.000
274.101 441.200
273.471 440.200
272.842 432.800
272.212 421.800
271.583 430.200
270.953 434.400
270.324 419.800
269.694 395.400
269.065 413.400
268.435 413.400
267.805 407.800
267.175 407.600
266.545 408.800
265.916 398.200
265.284 396.200
264.655 408.200
264.025 379.400
263.395 392.400
262.764 392.800
262.134 390.200
261.504 393.600
260.873 392.800
260.243 376.600
259.612 382.200
258.982 371.200
258.352 368.600
257.720 378.800
257.090 378.200
256.459 378.000
255.829 375.800
255.197 368.200
254.566 380.800
253.936 365.000
253.305 379.400
252.673 368.600
252.042 362.000
251.412 374.800
250.780 372.800
250.149 367.400
249.518 361.000
248.886 358.000
248.255 351.000
247.624 361.600
246.992 355.200
246.360 346.400
245.728 335.400
245.097 354.000
244.466 341.400
243.833 338.000
243.202 329.600
242.569 323.600
241.938 320.000
241.305 322.200
240.674 316.600
240.041 325.000
239.410 319.800
238.777 323.400
238.145 308.200
237.512 311.400
236.881 320.600
236.248 309.400
235.616 297.400
234.983 304.800
234.351 298.800
233.718 297.000
233.085 302.800
232.453 289.000
231.820 289.600
231.186 280.000
230.554 286.000
229.921 277.400
229.289 287.800
228.655 284.600
228.022 291.800
227.390 282.200
226.756 281.800
226.123 275.800
225.489 288.600
224.856 280.800
224.223 279.200
223.589 279.800
222.955 280.200
222.323 276.800
221.689 271.000
221.055 273.400
220.421 262.800
219.788 272.800
219.154 261.800
218.520 261.600
217.886 266.000
217.252 269.800
216.618 266.600
215.985 256.200
215.350 266.600
214.716 252.200
214.082 262.400
213.447 249.200
212.813 256.800
212.178 251.600
