834.788 331.800
834.204 324.600
833.621 316.800
833.037 323.800
832.453 334.200
831.870 340.200
831.286 319.400
830.702 334.600
830.118 317.000
829.535 325.000
828.950 329.600
828.367 315.600
827.782 319.600
827.198 313.800
826.615 320.800
826.030 319.400
825.446 326.000
824.861 328.400
824.277 323.200
823.692 307.400
823.109 324.000
822.523 317.800
821.940 328.800
821.354 316.800
820.770 315.400
820.185 324.800
819.601 321.200
819.016 324.000
818.431 336.200
817.846 322.800
817.261 330.800
816.677 321.200
816.091 319.800
815.506 324.800
814.922 328.800
814.336 326.400
813.750 325.000
813.166 317.600
812.580 321.200
811.995 320.200
811.410 319.400
810.824 326.200
810.239 322.800
809.653 325.200
809.068 319.600
808.482 325.800
807.896 329.400
807.310 329.200
806.724 327.800
806.139 324.600
805.553 330.600
804.967 318.400
804.381 328.400
803.795 316.200
803.209 325.000
802.624 313.800
802.037 323.000
801.451 322.200
800.865 319.400
800.278 328.000
799.692 322.200
799.105 326.000
798.519 320.800
797.932 322.400
797.346 322.200
796.759 328.800
796.173 332.000
795.586 324.800
794.999 330.800
794.412 329.000
793.826 336.600
793.239 324.400
792.652 323.400
792.065 323.200
791.478 316.000
790.891 332.400
790.303 318.400
789.716 321.000
789.129 334.400
788.542 336.000
787.955 315.400
787.368 326.400
786.781 326.400
786.192 322.400
785.605 317.600
785.018 333.000
784.430 315.800
783.842 331.600
783.254 324.000
782.667 339.600
782.079 322.600
781.491 344.600
780.903 331.000
780.316 325.400
779.727 332.400
779.139 341.000
778.551 326.000
777.963 337.800
777.375 343.000
776.787 328.000
776.198 318.600
775.610 326.800
775.022 337.000
774.433 326.800
773.845 341.200
773.256 336.800
772.668 332.200
772.079 339.200
771.491 327.400
770.901 328.800
770.313 329.600
769.724 323.400
769.136 327.400
768.546 340.800
767.958 322.400
767.368 327.200
766.780 335.200
766.190 345.600
765.602 345.000
765.012 338.400
764.422 334.400
763.834 334.200
763.244 344.600
762.655 330.600
762.066 331.200
761.476 341.200
760.887 342.000
760.297 340.200
759.707 334.000
759.117 346.600
758.528 349.400
757.938 344.600
757.348 332.200
756.759 339.800
756.169 349.000
755.578 356.800
754.988 343.200
754.398 350.400
753.809 343.800
753.218 342.400
752.628 346.600
752.037 348.000
751.447 341.600
750.858 351.200
750.267 344.200
749.676 349.800
749.086 347.000
748.495 348.800
747.904 354.000
747.314 346.800
746.723 350.000
746.132 368.000
745.541 342.400
744.950 349.400
744.360 355.400
743.769 364.000
743.178 364.600
742.587 347.000
741.996 350.400
741.404 350.200
740.813 359.600
740.222 353.600
739.631 343.800
739.040 357.600
738.449 356.600
737.857 334.800
737.266 358.200
736.674 363.400
736.083 368.000
735.490 362.800
734.899 366.600
734.307 364.200
733.716 366.200
733.124 355.400
732.533 354.800
731.940 350.600
731.348 348.800
730.756 364.400
730.165 362.000
729.572 362.800
728.980 352.800
728.388 372.400
727.796 366.000
727.203 370.600
726.611 358.600
726.019 368.600
725.426 367.000
724.834 375.600
724.242 364.400
723.648 377.400
723.056 371.800
722.464 373.800
721.870 371.600
721.278 377.600
720.685 383.400
720.092 365.000
719.500 386.800
718.906 377.000
718.314 382.200
717.720 392.600
717.127 392.400
716.534 372.200
715.941 388.800
715.347 384.200
714.755 395.600
714.161 390.400
713.568 396.000
712.974 398.600
712.380 387.800
711.787 391.400
711.193 407.200
710.600 418.600
710.006 401.800
709.412 401.000
708.819 410.400
708.224 411.800
707.631 422.600
707.037 417.000
706.443 427.000
705.848 425.400
705.255 425.800
704.660 428.000
704.066 449.800
703.472 440.200
702.878 431.800
702.283 434.200
701.689 439.000
701.095 438.400
700.500 446.800
699.906 432.800
699.311 448.800
698.716 444.800
698.122 451.600
697.527 443.200
696.932 442.600
696.337 456.800
695.742 471.800
695.147 454.600
694.552 463.400
693.957 460.800
693.363 463.800
692.768 473.600
692.173 462.600
691.578 465.000
690.982 467.200
690.387 476.200
689.791 471.000
689.196 478.600
688.601 495.400
688.005 483.400
687.410 488.800
686.814 485.400
686.218 485.400
685.623 508.800
685.027 500.800
684.431 498.600
683.835 502.600
683.239 519.600
682.643 528.000
682.047 508.200
681.451 524.400
680.855 525.400
680.259 537.400
679.663 523.400
679.066 537.800
678.470 554.600
677.874 546.200
677.278 541.600
676.682 565.400
676.084 571.400
675.488 562.000
674.892 573.800
674.296 574.600
673.698 583.200
673.102 580.000
672.505 582.800
671.908 595.400
671.311 585.600
670.715 582.400
670.117 585.200
669.520 582.400
668.924 587.200
668.326 581.000
667.729 573.600
667.132 582.400
666.534 584.600
665.937 567.000
665.339 567.200
664.743 547.200
664.146 569.200
663.548 558.600
662.950 575.800
662.352 560.000
661.755 552.000
661.157 550.800
660.560 550.000
659.961 546.200
659.364 550.000
658.766 548.200
658.168 543.400
657.570 523.400
656.971 542.800
656.374 526.000
655.775 522.600
655.178 529.800
654.579 523.400
653.980 519.600
653.383 517.400
652.784 511.200
652.185 510.800
651.588 499.200
650.989 495.200
650.390 492.600
649.792 496.000
649.193 494.200
648.594 498.000
647.996 496.200
647.397 503.400
646.798 490.800
646.199 494.000
645.599 485.400
645.001 497.800
644.402 478.200
643.803 486.200
643.203 473.200
642.604 482.800
642.006 469.800
641.406 470.400
640.806 469.800
640.207 478.000
639.607 466.800
639.008 467.600
638.408 456.200
637.808 474.000
637.210 447.000
636.610 455.800
636.010 465.200
635.410 450.800
634.810 456.600
634.211 457.200
633.611 439.000
633.011 450.000
632.411 460.600
631.810 456.000
631.210 462.400
630.610 444.000
630.010 437.400
629.410 430.200
628.808 458.600
628.208 444.800
627.608 412.600
627.007 436.200
626.407 435.000
625.807 462.200
625.206 439.200
624.606 445.600
624.004 441.800
623.403 430.200
622.803 436.600
622.202 430.200
621.601 435.200
620.999 429.000
620.399 443.600
619.798 428.000
619.197 432.000
618.596 429.600
617.994 427.600
617.393 427.000
616.792 417.800
616.190 428.600
615.589 431.600
614.988 420.800
614.385 421.200
613.784 429.800
613.183 431.200
612.581 426.800
611.979 417.000
611.378 416.400
610.776 424.400
610.174 436.800
609.572 428.600
608.970 426.200
608.369 412.400
607.766 423.200
607.164 428.200
606.561 414.000
605.960 412.600
605.357 406.000
604.755 416.600
604.152 415.400
603.551 411.800
602.948 421.400
602.346 410.200
601.743 400.800
601.139 402.400
600.537 402.200
599.934 421.200
599.332 395.200
598.729 411.200
598.126 411.400
597.524 408.000
596.920 397.800
596.318 406.600
595.715 409.000
595.111 413.800
594.509 408.000
593.905 404.400
593.301 398.400
592.698 394.600
592.095 401.400
591.492 393.000
590.888 394.800
590.285 397.600
589.681 391.000
589.078 391.200
588.474 387.000
587.870 394.800
587.267 388.000
586.663 402.400
586.059 378.400
585.455 384.600
584.851 380.400
584.247 374.800
583.644 387.600
583.039 388.400
582.435 384.600
581.831 377.200
581.227 383.000
580.622 373.000
580.018 375.800
579.413 380.600
578.809 373.400
578.204 369.000
577.600 352.400
576.995 376.000
576.390 373.600
575.786 370.600
575.181 368.800
574.576 372.400
573.972 371.400
573.367 381.000
572.762 363.400
572.157 368.800
571.552 359.800
570.947 358.600
570.342 357.800
569.737 362.600
569.131 356.000
568.526 364.000
567.921 358.600
567.315 361.200
566.710 347.200
566.105 366.800
565.498 369.200
564.893 357.800
564.288 356.400
563.682 361.000
563.077 359.000
562.470 340.400
561.865 334.800
561.259 352.000
560.654 358.200
560.047 357.000
559.441 342.200
558.835 353.200
558.228 359.600
557.623 354.400
557.017 365.800
556.410 345.200
555.804 335.600
555.198 339.600
554.591 349.200
553.985 351.400
553.379 352.600
552.772 337.000
552.165 349.000
551.558 356.800
550.952 349.400
550.344 353.800
549.738 353.800
549.131 346.000
548.524 336.600
547.918 344.800
547.310 346.400
546.704 343.400
546.096 339.600
545.489 356.400
544.882 350.200
544.274 334.200
543.668 341.600
543.060 352.600
542.453 341.800
541.845 340.200
541.237 339.000
540.630 337.800
540.022 345.000
539.415 350.800
538.807 337.000
538.199 329.600
537.592 347.200
536.984 332.400
536.376 352.200
535.768 345.400
535.160 339.400
534.552 349.200
533.943 338.800
533.336 346.400
532.728 349.600
532.119 344.400
531.510 343.600
530.903 345.600
530.294 330.200
529.686 338.600
529.077 339.200
528.468 351.400
527.859 351.800
527.252 345.600
526.643 352.200
526.034 341.400
525.425 346.200
524.816 339.800
524.207 334.000
523.598 348.400
522.989 347.400
522.380 355.600
521.772 338.800
521.163 342.000
520.553 337.400
519.944 339.800
519.335 350.800
518.725 344.200
518.116 335.400
517.507 347.400
516.897 347.800
516.288 353.400
515.678 354.400
515.069 357.800
514.458 346.600
513.848 340.400
513.238 340.000
512.629 345.600
512.019 349.400
511.409 337.600
510.799 344.000
510.189 335.400
509.579 346.400
508.968 341.000
508.358 348.800
507.748 356.800
507.138 348.600
506.528 347.800
505.918 358.000
505.307 363.000
504.696 336.000
504.086 354.600
503.476 350.400
502.864 360.000
502.254 358.400
501.644 355.200
501.032 340.400
500.421 350.800
499.811 356.000
499.200 350.200
498.589 352.000
497.978 361.200
497.367 347.000
496.755 349.000
496.145 362.200
495.533 357.400
494.922 353.800
494.311 366.600
493.699 341.200
493.088 355.000
492.476 358.400
491.865 367.200
491.253 365.600
490.641 387.600
490.029 370.600
489.418 374.600
488.806 382.000
488.194 375.000
487.582 386.800
486.971 380.400
486.358 378.200
485.747 390.800
485.134 395.000
484.523 398.600
483.910 409.600
483.298 401.200
482.686 422.400
482.073 411.400
481.461 430.000
480.848 433.600
480.235 429.600
479.624 447.400
479.011 468.400
478.398 460.400
477.786 473.600
477.173 484.600
476.560 483.800
475.948 482.600
475.334 469.600
474.721 486.800
474.108 479.000
473.496 482.400
472.882 461.600
472.269 459.000
471.655 460.800
471.043 452.600
470.430 437.400
469.816 441.000
469.202 433.600
468.589 435.600
467.975 444.800
467.363 442.800
466.749 433.400
466.135 424.000
465.521 435.600
464.907 419.800
464.293 413.200
463.680 418.800
463.066 393.400
462.452 412.200
461.838 399.400
461.223 410.800
460.609 406.200
459.996 398.000
459.382 393.800
458.768 386.800
458.154 391.600
457.538 391.800
456.924 398.400
456.309 390.400
455.695 385.000
455.080 396.800
454.466 382.600
453.851 396.000
453.237 384.800
452.622 380.800
452.008 388.800
451.393 376.000
450.778 381.400
450.162 380.200
449.547 384.200
448.932 381.600
448.318 376.800
447.703 384.200
447.088 373.200
446.472 391.600
445.856 375.400
445.241 378.200
444.626 380.800
444.010 376.400
443.395 389.600
442.780 389.000
442.164 391.800
441.548 389.800
440.932 383.200
440.317 393.000
439.700 397.200
439.085 397.000
438.469 382.000
437.853 398.000
437.237 377.800
436.622 387.600
436.005 396.600
435.389 393.000
434.773 397.000
434.156 400.600
433.541 395.200
432.923 393.600
432.308 388.000
431.690 410.400
431.075 393.200
430.457 410.400
429.841 396.600
429.225 406.400
428.608 407.200
427.992 414.800
427.374 406.400
426.757 414.000
426.141 414.600
425.523 409.600
424.907 413.400
424.289 411.000
423.673 408.800
423.055 428.000
422.438 411.800
421.821 428.400
421.203 428.400
420.587 443.400
419.969 436.000
419.351 444.000
418.734 432.600
418.116 422.800
417.498 425.200
416.882 449.000
416.263 436.200
415.645 440.000
415.027 440.800
414.410 453.600
413.792 433.400
413.174 438.000
412.555 448.000
411.938 450.400
411.320 447.600
410.702 459.200
410.083 442.800
409.466 447.200
408.847 451.800
408.229 442.400
407.610 434.200
406.991 447.200
406.373 450.800
405.754 464.200
405.136 451.400
404.518 458.000
403.899 460.000
403.280 468.600
402.661 459.200
402.042 452.600
401.423 462.800
400.804 458.400
400.185 456.000
399.566 459.800
398.947 456.800
398.328 460.600
397.708 461.600
397.089 464.800
396.470 446.000
395.850 463.400
395.231 449.600
394.612 470.000
393.992 466.200
393.373 459.200
392.753 456.400
392.134 449.200
391.514 454.000
390.893 457.800
390.273 466.600
389.654 463.800
389.034 476.400
388.414 469.000
387.794 477.400
387.174 460.600
386.553 489.600
385.933 491.000
385.313 485.600
384.693 489.400
384.072 515.800
383.452 521.000
382.832 556.000
382.212 553.200
381.590 570.600
380.970 579.800
380.350 607.400
379.729 629.600
379.108 648.200
378.487 673.600
377.867 695.400
377.245 722.200
376.625 720.800
376.004 742.000
375.382 764.200
374.762 766.200
374.141 758.600
373.519 757.800
372.898 793.200
372.276 790.400
371.655 784.400
371.033 798.000
370.412 784.600
369.791 811.800
369.169 811.400
368.548 829.600
367.926 825.400
367.305 837.200
366.682 875.200
366.061 857.800
365.439 872.000
364.818 896.400
364.195 913.600
363.573 925.600
362.951 941.400
362.329 981.600
361.707 990.600
361.084 1006.000
360.462 1014.200
359.840 1035.600
359.217 1062.600
358.596 1087.600
357.973 1096.000
357.350 1143.000
356.728 1205.000
356.105 1194.200
355.482 1214.800
354.860 1255.800
354.237 1288.600
353.614 1320.400
352.991 1343.400
352.369 1413.400
351.745 1421.600
351.122 1455.600
350.499 1509.800
349.876 1555.000
349.253 1579.800
348.629 1635.000
348.006 1706.000
347.382 1792.600
346.760 1872.000
346.136 1972.200
345.513 2099.400
344.889 2240.200
344.265 2422.600
343.641 2667.600
343.018 2863.600
342.395 3207.600
341.771 3573.000
341.147 3833.800
340.523 4056.800
339.899 4212.800
339.275 4238.400
338.651 4234.400
338.027 4242.000
337.403 4108.600
336.778 3943.000
336.154 3796.200
335.530 3590.200
334.905 3346.400
334.281 3172.600
333.657 3003.000
333.032 2802.200
332.408 2601.600
331.783 2446.000
331.159 2312.000
330.534 2155.000
329.909 2038.400
329.285 1940.800
328.659 1821.800
328.034 1740.400
327.409 1673.800
326.784 1550.200
326.159 1498.600
325.535 1435.200
324.910 1397.600
324.283 1292.600
323.658 1277.800
323.033 1230.000
322.408 1195.400
321.783 1163.600
321.157 1146.000
320.531 1099.200
319.906 1080.800
319.281 1087.200
318.654 1056.000
318.029 1058.400
317.403 1041.400
316.777 1039.200
316.151 1011.400
315.526 1009.200
314.899 976.600
314.273 984.000
313.648 984.000
313.021 936.600
312.395 952.800
311.769 966.600
311.142 946.200
310.516 951.000
309.889 926.600
309.263 933.600
308.637 935.200
308.010 927.400
307.384 930.000
306.757 919.200
306.131 914.400
305.503 911.400
304.877 911.800
304.249 927.800
303.623 901.400
302.996 927.800
302.369 927.400
301.742 916.800
301.115 936.800
300.487 942.400
299.861 926.600
299.233 944.800
298.605 951.800
297.979 942.600
297.351 935.800
296.724 931.000
296.096 961.000
295.468 951.200
294.841 988.000
294.213 961.400
293.585 976.800
292.958 1003.200
292.330 1013.400
291.702 1016.600
291.075 1009.800
290.446 1028.600
289.818 1023.400
289.189 1012.000
288.562 1009.600
287.934 1009.200
287.305 987.400
286.677 971.400
286.049 963.800
285.421 927.000
284.792 911.600
284.163 918.200
283.534 877.600
282.907 868.600
282.278 858.800
281.649 851.200
281.020 833.400
280.391 821.600
279.762 823.400
279.133 825.600
278.505 805.000
277.876 801.400
277.247 781.600
276.618 773.600
275.989 749.000
275.359 764.200
274.730 761.600
274.101 754.600
273.471 741.200
272.842 744.600
272.212 739.200
271.583 724.200
270.953 743.000
270.324 736.000
269.694 714.600
269.065 709.200
268.435 702.000
267.805 702.600
267.175 689.600
266.545 700.200
265.916 689.800
265.284 678.600
264.655 687.600
264.025 685.200
263.395 685.800
262.764 666.800
262.134 674.800
261.504 687.800
260.873 667.200
260.243 676.800
259.612 669.000
258.982 660.800
258.352 666.000
257.720 677.400
257.090 665.200
256.459 661.800
255.829 647.600
255.197 650.400
254.566 647.000
253.936 634.400
253.305 644.800
252.673 619.800
252.042 619.400
251.412 616.000
250.780 620.000
250.149 608.800
249.518 599.400
248.886 595.200
248.255 598.800
247.624 577.000
246.992 566.200
246.360 574.400
245.728 544.200
245.097 534.000
244.466 532.800
243.833 525.800
243.202 525.200
242.569 509.000
241.938 505.200
241.305 495.000
240.674 490.200
240.041 483.400
239.410 454.800
238.777 477.600
238.145 467.200
237.512 452.800
236.881 456.200
236.248 453.400
235.616 435.600
234.983 440.000
234.351 442.000
233.718 427.800
233.085 408.800
232.453 426.400
231.820 413.800
231.186 415.600
230.554 405.400
229.921 417.600
229.289 408.800
228.655 401.600
228.022 419.200
227.390 401.200
226.756 396.000
226.123 415.000
225.489 408.200
224.856 406.000
224.223 390.600
223.589 405.600
222.955 392.200
222.323 388.800
221.689 397.800
221.055 383.200
220.421 388.200
219.788 388.000
219.154 389.800
218.520 363.200
217.886 379.400
217.252 384.000
216.618 385.400
215.985 378.400
215.350 370.000
214.716 366.200
214.082 377.200
213.447 368.000
212.813 365.800
212.178 357.200
