834.788 165.800
834.204 155.200
833.621 164.000
833.037 171.200
832.453 166.600
831.870 166.200
831.286 166.800
830.702 171.000
830.118 171.200
829.535 168.200
828.950 158.200
828.367 172.000
827.782 169.400
827.198 175.000
826.615 166.400
826.030 168.600
825.446 168.600
824.861 172.700
824.277 175.800
823.692 159.800
823.109 160.200
822.523 172.000
821.940 168.800
821.354 170.800
820.770 170.200
820.185 159.000
819.601 164.800
819.016 174.800
818.431 166.600
817.846 160.000
817.261 173.200
816.677 168.000
816.091 172.600
815.506 168.400
814.922 166.200
814.336 172.400
813.750 168.400
813.166 170.400
812.580 168.400
811.995 160.800
811.410 165.200
810.824 171.400
810.239 174.800
809.653 162.000
809.068 167.200
808.482 170.000
807.896 166.800
807.310 170.800
806.724 164.600
806.139 164.600
805.553 165.000
804.967 173.200
804.381 169.400
803.795 171.400
803.209 176.000
802.624 168.400
802.037 171.200
801.451 165.400
800.865 168.600
800.278 170.000
799.692 163.000
799.105 166.200
798.519 175.400
797.932 183.400
797.346 169.400
796.759 169.800
796.173 175.800
795.586 177.000
794.999 172.400
794.412 167.800
793.826 186.400
793.239 173.800
792.652 171.000
792.065 170.600
791.478 170.600
790.891 165.600
790.303 170.400
789.716 164.600
789.129 162.400
788.542 175.200
787.955 164.600
787.368 170.600
786.781 165.000
786.192 167.400
785.605 167.400
785.018 175.400
784.430 172.000
783.842 175.800
783.254 173.400
782.667 174.000
782.079 177.200
781.491 174.200
780.903 176.400
780.316 176.000
779.727 183.200
779.139 173.000
778.551 180.800
777.963 172.000
777.375 169.400
776.787 180.200
776.198 176.400
775.610 180.400
775.022 180.600
774.433 178.400
773.845 173.600
773.256 175.000
772.668 172.800
772.079 177.600
771.491 179.400
770.901 168.800
770.313 185.800
769.724 179.400
769.136 181.000
768.546 184.600
767.958 187.200
767.368 179.200
766.780 185.400
766.190 163.400
765.602 180.200
765.012 171.600
764.422 170.800
763.834 181.600
763.244 180.600
762.655 181.400
762.066 188.200
761.476 175.800
760.887 183.800
760.297 181.400
759.707 189.800
759.117 175.600
758.528 178.600
757.938 177.200
757.348 193.800
756.759 188.600
756.169 182.800
755.578 190.200
754.988 186.600
754.398 187.200
753.809 193.200
753.218 182.400
752.628 180.200
752.037 190.600
751.447 194.800
750.858 197.800
750.267 196.000
749.676 199.400
749.086 188.200
748.495 201.200
747.904 191.400
747.314 185.400
746.723 196.000
746.132 201.200
745.541 188.200
744.950 192.600
744.360 193.800
743.769 196.400
743.178 196.800
742.587 195.600
741.996 191.200
741.404 192.600
740.813 196.000
740.222 197.400
739.631 204.200
739.040 190.800
738.449 195.800
737.857 210.400
737.266 204.200
736.674 209.000
736.083 200.400
735.490 204.600
734.899 196.800
734.307 193.600
733.716 204.200
733.124 193.200
732.533 194.400
731.940 197.800
731.348 198.600
730.756 206.400
730.165 202.400
729.572 203.000
728.980 200.600
728.388 204.800
727.796 204.600
727.203 205.200
726.611 202.400
726.019 201.000
725.426 207.200
724.834 213.200
724.242 201.000
723.648 211.600
723.056 200.600
722.464 213.400
721.870 204.000
721.278 201.800
720.685 217.000
720.092 211.600
719.500 207.600
718.906 216.800
718.314 212.800
717.720 223.800
717.127 219.400
716.534 222.600
715.941 221.000
715.347 221.600
714.755 222.000
714.161 223.800
713.568 223.600
712.974 237.200
712.380 238.400
711.787 225.000
711.193 230.400
710.600 229.000
710.006 243.000
709.412 254.400
708.819 236.600
708.224 245.200
707.631 254.400
707.037 251.200
706.443 242.600
705.848 244.400
705.255 252.000
704.660 246.200
704.066 276.200
703.472 255.000
702.878 265.800
702.283 268.600
701.689 259.600
701.095 263.800
700.500 267.200
699.906 259.400
699.311 261.200
698.716 266.800
698.122 268.200
697.527 269.600
696.932 276.000
696.337 267.800
695.742 282.200
695.147 281.400
694.552 279.400
693.957 276.200
693.363 289.000
692.768 280.400
692.173 280.600
691.578 274.200
690.982 272.600
690.387 273.800
689.791 284.600
689.196 280.600
688.601 277.800
688.005 279.000
687.410 287.400
686.814 285.400
686.218 289.800
685.623 291.800
685.027 298.200
684.431 294.800
683.835 287.200
683.239 297.200
682.643 303.200
682.047 318.400
681.451 314.400
680.855 317.800
680.259 323.000
679.663 325.000
679.066 335.800
678.470 345.200
677.874 346.600
677.278 352.600
676.682 362.800
676.084 374.800
675.488 374.800
674.892 392.000
674.296 382.600
673.698 390.200
673.102 389.200
672.505 397.200
671.908 380.000
671.311 385.400
670.715 388.000
670.117 392.600
669.520 389.000
668.924 383.000
668.326 374.000
667.729 375.400
667.132 361.600
666.534 364.400
665.937 357.000
665.339 344.400
664.743 344.800
664.146 340.000
663.548 318.400
662.950 311.400
662.352 312.400
661.755 315.200
661.157 319.400
660.560 296.400
659.961 305.200
659.364 290.200
658.766 295.600
658.168 290.200
657.570 297.200
656.971 287.000
656.374 281.800
655.775 280.400
655.178 288.400
654.579 272.000
653.980 283.400
653.383 269.600
652.784 285.600
652.185 278.800
651.588 276.000
650.989 272.800
650.390 276.000
649.792 269.200
649.193 263.800
648.594 276.400
647.996 270.000
647.397 265.600
646.798 279.400
646.199 268.800
645.599 270.800
645.001 271.600
644.402 258.400
643.803 262.000
643.203 260.200
642.604 255.800
642.006 260.000
641.406 260.400
640.806 254.400
640.207 262.000
639.607 252.200
639.008 263.800
638.408 249.800
637.808 260.800
637.210 249.400
636.610 254.400
636.010 256.200
635.410 244.600
634.810 255.000
634.211 258.200
633.611 240.800
633.011 260.800
632.411 259.800
631.810 259.800
631.210 253.600
630.610 253.000
630.010 236.800
629.410 247.000
628.808 243.600
628.208 256.400
627.608 222.200
627.007 253.600
626.407 240.600
625.807 254.800
625.206 251.800
624.606 248.600
624.004 247.000
623.403 243.600
622.803 252.400
622.202 255.200
621.601 236.000
620.999 246.600
620.399 254.800
619.798 236.000
619.197 244.200
618.596 248.400
617.994 238.800
617.393 248.000
616.792 237.400
616.190 239.600
615.589 231.600
614.988 240.400
614.385 235.800
613.784 247.000
613.183 250.400
612.581 241.200
611.979 241.000
611.378 241.200
610.776 226.600
610.174 232.800
609.572 241.400
608.970 241.400
608.369 228.400
607.766 233.600
607.164 237.600
606.561 232.000
605.960 228.400
605.357 233.000
604.755 236.400
604.152 239.000
603.551 241.200
602.948 239.400
602.346 246.800
601.743 225.200
601.139 231.200
600.537 233.600
599.934 232.400
599.332 233.200
598.729 229.400
598.126 231.800
597.524 232.400
596.920 228.600
596.318 226.600
595.715 232.400
595.111 225.000
594.509 221.200
593.905 223.200
593.301 219.400
592.698 218.000
592.095 218.400
591.492 225.600
590.888 218.400
590.285 216.200
589.681 212.600
589.078 212.800
588.474 220.600
587.870 216.000
587.267 205.000
586.663 207.400
586.059 217.800
585.455 216.200
584.851 204.200
584.247 209.200
583.644 207.400
583.039 212.600
582.435 206.400
581.831 203.600
581.227 207.600
580.622 213.800
580.018 199.800
579.413 203.800
578.809 201.200
578.204 209.400
577.600 199.400
576.995 203.800
576.390 194.000
575.786 202.800
575.181 185.800
574.576 198.400
573.972 201.600
573.367 192.000
572.762 188.600
572.157 194.000
571.552 187.600
570.947 192.200
570.342 190.000
569.737 193.000
569.131 193.000
568.526 194.600
567.921 184.600
567.315 190.200
566.710 196.600
566.105 184.200
565.498 191.800
564.893 184.200
564.288 187.600
563.682 184.000
563.077 196.400
562.470 189.800
561.865 179.800
561.259 187.600
560.654 178.800
560.047 192.400
559.441 180.200
558.835 181.000
558.228 188.800
557.623 179.800
557.017 183.800
556.410 185.600
555.804 182.200
555.198 178.800
554.591 191.200
553.985 175.600
553.379 180.400
552.772 187.200
552.165 179.600
551.558 182.200
550.952 179.000
550.344 179.600
549.738 180.600
549.131 182.600
548.524 187.000
547.918 177.600
547.310 184.000
546.704 177.800
546.096 182.000
545.489 187.800
544.882 176.000
544.274 180.200
543.668 188.800
543.060 186.800
542.453 177.400
541.845 192.600
541.237 178.400
540.630 174.800
540.022 188.000
539.415 187.000
538.807 184.000
538.199 175.600
537.592 180.600
536.984 189.200
536.376 177.000
535.768 171.200
535.160 174.000
534.552 184.000
533.943 185.600
533.336 181.000
532.728 188.600
532.119 183.400
531.510 186.600
530.903 174.800
530.294 180.600
529.686 182.400
529.077 180.600
528.468 184.400
527.859 175.000
527.252 184.400
526.643 169.600
526.034 170.600
525.425 185.400
524.816 173.600
524.207 184.000
523.598 182.800
522.989 176.400
522.380 183.000
521.772 180.200
521.163 173.200
520.553 187.000
519.944 180.200
519.335 174.200
518.725 178.600
518.116 183.800
517.507 180.200
516.897 182.400
516.288 184.600
515.678 179.600
515.069 173.600
514.458 170.200
513.848 182.200
513.238 189.000
512.629 188.600
512.019 181.200
511.409 178.200
510.799 194.600
510.189 186.000
509.579 183.800
508.968 183.600
508.358 181.600
507.748 188.200
507.138 187.400
506.528 180.400
505.918 193.200
505.307 181.000
504.696 182.000
504.086 179.600
503.476 179.000
502.864 176.400
502.254 195.200
501.644 182.000
501.032 189.400
500.421 181.200
499.811 188.400
499.200 190.800
498.589 179.400
497.978 185.600
497.367 177.800
496.755 192.000
496.145 181.600
495.533 196.000
494.922 191.200
494.311 192.400
493.699 194.000
493.088 181.800
492.476 191.600
491.865 195.400
491.253 188.400
490.641 191.200
490.029 191.600
489.418 189.600
488.806 189.200
488.194 188.200
487.582 197.000
486.971 188.000
486.358 193.000
485.747 199.800
485.134 193.000
484.523 190.400
483.910 194.600
483.298 197.800
482.686 191.600
482.073 195.000
481.461 193.400
480.848 191.200
480.235 187.200
479.624 188.400
479.011 189.800
478.398 190.200
477.786 192.600
477.173 193.800
476.560 193.400
475.948 183.400
475.334 194.000
474.721 181.600
474.108 189.200
473.496 185.200
472.882 190.000
472.269 200.200
471.655 189.600
471.043 193.800
470.430 187.200
469.816 192.200
469.202 199.400
468.589 184.600
467.975 190.800
467.363 192.600
466.749 188.800
466.135 188.000
465.521 188.400
464.907 192.200
464.293 192.200
463.680 197.600
463.066 188.400
462.452 193.000
461.838 189.000
461.223 192.200
460.609 181.200
459.996 178.200
459.382 187.200
458.768 200.400
458.154 193.600
457.538 195.600
456.924 190.200
456.309 191.000
455.695 187.800
455.080 187.800
454.466 182.800
453.851 195.800
453.237 183.200
452.622 190.800
452.008 192.800
451.393 193.800
450.778 185.400
450.162 186.200
449.547 191.000
448.932 189.600
448.318 194.400
447.703 184.800
447.088 190.800
446.472 196.600
445.856 187.000
445.241 194.600
444.626 193.200
444.010 189.800
443.395 190.400
442.780 192.200
442.164 205.800
441.548 191.000
440.932 211.200
440.317 193.400
439.700 183.800
439.085 200.400
438.469 202.000
437.853 212.800
437.237 197.000
436.622 196.000
436.005 213.800
435.389 216.400
434.773 206.400
434.156 223.000
433.541 210.000
432.923 212.800
432.308 217.000
431.690 219.400
431.075 221.000
430.457 226.400
429.841 222.000
429.225 221.400
428.608 219.200
427.992 226.200
427.374 229.600
426.757 231.400
426.141 224.400
425.523 237.400
424.907 224.000
424.289 230.200
423.673 225.000
423.055 242.400
422.438 238.200
421.821 240.400
421.203 239.000
420.587 244.600
419.969 248.000
419.351 240.000
418.734 250.600
418.116 238.400
417.498 251.800
416.882 247.800
416.263 234.000
415.645 241.400
415.027 250.000
414.410 239.600
413.792 247.800
413.174 248.200
412.555 246.000
411.938 240.600
411.320 256.400
410.702 248.000
410.083 247.200
409.466 255.800
408.847 249.800
408.229 244.800
407.610 262.400
406.991 252.400
406.373 248.000
405.754 257.000
405.136 249.600
404.518 251.600
403.899 260.200
403.280 255.200
402.661 270.200
402.042 265.600
401.423 257.800
400.804 264.800
400.185 250.600
399.566 251.400
398.947 258.600
398.328 249.800
397.708 260.800
397.089 260.200
396.470 256.400
395.850 248.000
395.231 251.600
394.612 269.800
393.992 253.200
393.373 266.600
392.753 264.000
392.134 251.200
391.514 247.800
390.893 253.400
390.273 266.200
389.654 264.200
389.034 269.200
388.414 281.800
387.794 279.200
387.174 292.600
386.553 291.600
385.933 314.000
385.313 328.200
384.693 353.200
384.072 380.000
383.452 410.400
382.832 466.400
382.212 524.000
381.590 595.200
380.970 652.000
380.350 736.200
379.729 766.800
379.108 834.400
378.487 838.600
377.867 852.800
377.245 823.800
376.625 842.600
376.004 817.800
375.382 795.400
374.762 782.800
374.141 756.800
373.519 738.800
372.898 718.000
372.276 716.600
371.655 714.600
371.033 679.400
370.412 654.600
369.791 646.000
369.169 628.600
368.548 603.000
367.926 590.200
367.305 556.600
366.682 538.200
366.061 535.200
365.439 537.200
364.818 506.600
364.195 490.600
363.573 489.600
362.951 477.600
362.329 495.800
361.707 485.400
361.084 477.400
360.462 483.800
359.840 491.800
359.217 479.800
358.596 496.400
357.973 488.600
357.350 508.600
356.728 500.000
356.105 522.000
355.482 526.600
354.860 564.600
354.237 579.600
353.614 576.600
352.991 614.800
352.369 643.400
351.745 673.600
351.122 707.200
350.499 759.200
349.876 774.600
349.253 823.800
348.629 881.800
348.006 941.200
347.382 998.600
346.760 1067.800
346.136 1168.000
345.513 1318.400
344.889 1463.400
344.265 1703.400
343.641 2046.400
343.018 2481.600
342.395 2958.000
341.771 3560.600
341.147 4063.600
340.523 4420.600
339.899 4493.000
339.275 4330.600
338.651 3936.000
338.027 3477.400
337.403 2995.200
336.778 2585.600
336.154 2266.400
335.530 1999.800
334.905 1776.200
334.281 1595.800
333.657 1457.200
333.032 1258.400
332.408 1174.800
331.783 1088.800
331.159 983.600
330.534 909.400
329.909 840.600
329.285 781.800
328.659 716.200
328.034 684.200
327.409 661.800
326.784 620.400
326.159 597.400
325.535 589.600
324.910 573.400
324.283 551.400
323.658 542.200
323.033 544.600
322.408 530.600
321.783 515.400
321.157 518.400
320.531 519.400
319.906 525.800
319.281 527.400
318.654 511.600
318.029 510.800
317.403 542.000
316.777 524.600
316.151 530.600
315.526 521.600
314.899 511.800
314.273 521.200
313.648 510.400
313.021 503.800
312.395 509.600
311.769 507.800
311.142 495.000
310.516 501.600
309.889 489.200
309.263 493.600
308.637 496.600
308.010 475.000
307.384 487.000
306.757 491.800
306.131 495.000
305.503 486.200
304.877 490.600
304.249 492.800
303.623 495.400
302.996 517.600
302.369 516.000
301.742 509.400
301.115 525.200
300.487 536.200
299.861 548.400
299.233 556.800
298.605 572.000
297.979 606.400
297.351 607.200
296.724 618.000
296.096 644.400
295.468 666.600
294.841 677.000
294.213 719.600
293.585 747.800
292.958 784.200
292.330 817.400
291.702 843.400
291.075 883.600
290.446 904.600
289.818 932.400
289.189 939.200
288.562 921.200
287.934 899.000
287.305 837.600
286.677 797.200
286.049 763.800
285.421 717.200
284.792 714.200
284.163 668.000
283.534 617.400
282.907 597.400
282.278 596.200
281.649 594.200
281.020 583.400
280.391 599.800
279.762 601.800
279.133 574.400
278.505 584.200
277.876 568.200
277.247 568.000
276.618 565.600
275.989 556.400
275.359 540.400
274.730 534.800
274.101 531.800
273.471 499.400
272.842 512.600
272.212 513.000
271.583 487.600
270.953 480.800
270.324 489.000
269.694 478.200
269.065 470.600
268.435 470.000
267.805 469.800
267.175 452.400
266.545 448.400
265.916 444.000
265.284 429.000
264.655 433.800
264.025 427.600
263.395 420.800
262.764 420.600
262.134 416.200
261.504 406.400
260.873 397.000
260.243 391.600
259.612 391.600
258.982 379.000
258.352 390.000
257.720 384.000
257.090 376.200
256.459 372.600
255.829 381.000
255.197 360.400
254.566 349.000
253.936 342.600
253.305 337.600
252.673 333.400
252.042 333.800
251.412 321.600
250.780 308.200
250.149 303.800
249.518 296.000
248.886 285.000
248.255 276.200
247.624 283.400
246.992 270.400
246.360 273.200
245.728 260.400
245.097 248.400
244.466 252.200
243.833 241.200
243.202 241.800
242.569 246.600
241.938 238.200
241.305 238.000
240.674 232.000
240.041 218.800
239.410 215.800
238.777 224.800
238.145 215.800
237.512 217.800
236.881 218.800
236.248 207.000
235.616 212.400
234.983 208.600
234.351 207.600
233.718 206.200
233.085 211.400
232.453 203.400
231.820 201.200
231.186 190.800
230.554 196.200
229.921 200.400
229.289 201.800
228.655 193.800
228.022 203.000
227.390 197.000
226.756 194.800
226.123 202.800
225.489 188.200
224.856 188.200
224.223 190.600
223.589 199.200
222.955 199.600
222.323 193.200
221.689 188.400
221.055 190.600
220.421 193.400
219.788 190.800
219.154 194.200
218.520 190.200
217.886 181.000
217.252 186.600
216.618 192.600
215.985 183.600
215.350 179.400
214.716 190.000
214.082 185.800
213.447 185.200
212.813 179.800
212.178 179.400
