834.788 97.800
834.204 102.200
833.621 104.600
833.037 104.800
832.453 99.400
831.870 110.600
831.286 102.800
830.702 101.000
830.118 104.000
829.535 95.200
828.950 100.200
828.367 100.800
827.782 105.200
827.198 105.200
826.615 111.600
826.030 105.200
825.446 101.200
824.861 100.300
824.277 99.400
823.692 103.000
823.109 105.600
822.523 108.200
821.940 101.600
821.354 112.000
820.770 106.000
820.185 108.400
819.601 105.400
819.016 102.000
818.431 96.800
817.846 104.400
817.261 106.200
816.677 98.000
816.091 103.200
815.506 100.600
814.922 103.000
814.336 98.400
813.750 109.000
813.166 99.600
812.580 97.600
811.995 92.800
811.410 100.200
810.824 99.600
810.239 105.600
809.653 103.600
809.068 99.600
808.482 105.000
807.896 102.800
807.310 97.200
806.724 102.400
806.139 100.800
805.553 96.200
804.967 105.400
804.381 102.000
803.795 96.000
803.209 105.200
802.624 98.000
802.037 101.800
801.451 100.800
800.865 100.000
800.278 105.200
799.692 101.200
799.105 102.200
798.519 101.200
797.932 107.800
797.346 101.200
796.759 106.200
796.173 110.000
795.586 104.800
794.999 99.600
794.412 109.800
793.826 106.800
793.239 105.800
792.652 99.600
792.065 105.600
791.478 104.200
790.891 99.200
790.303 101.800
789.716 103.600
789.129 102.400
788.542 104.600
787.955 100.800
787.368 103.800
786.781 105.800
786.192 105.400
785.605 104.400
785.018 109.000
784.430 101.200
783.842 102.800
783.254 104.000
782.667 106.200
782.079 102.600
781.491 101.400
780.903 98.600
780.316 104.000
779.727 104.800
779.139 102.800
778.551 105.600
777.963 106.800
777.375 109.400
776.787 100.200
776.198 103.800
775.610 110.400
775.022 107.800
774.433 105.000
773.845 103.800
773.256 103.600
772.668 104.800
772.079 106.400
771.491 108.800
770.901 107.000
770.313 109.400
769.724 103.600
769.136 109.200
768.546 108.000
767.958 115.600
767.368 109.800
766.780 106.600
766.190 109.000
765.602 112.000
765.012 107.600
764.422 113.400
763.834 105.600
763.244 107.200
762.655 114.400
762.066 111.800
761.476 106.000
760.887 112.400
760.297 115.600
759.707 107.600
759.117 116.800
758.528 102.000
757.938 111.800
757.348 111.600
756.759 111.600
756.169 109.600
755.578 110.600
754.988 115.200
754.398 115.200
753.809 107.000
753.218 110.400
752.628 115.200
752.037 109.800
751.447 107.800
750.858 116.800
750.267 115.400
749.676 109.600
749.086 108.600
748.495 111.200
747.904 114.200
747.314 115.800
746.723 117.800
746.132 114.400
745.541 115.200
744.950 113.400
744.360 108.000
743.769 115.400
743.178 113.400
742.587 117.800
741.996 111.400
741.404 119.800
740.813 116.600
740.222 121.400
739.631 116.000
739.040 116.200
738.449 113.600
737.857 117.800
737.266 115.400
736.674 119.200
736.083 117.000
735.490 112.800
734.899 112.600
734.307 110.400
733.716 110.200
733.124 110.800
732.533 113.400
731.940 120.200
731.348 121.200
730.756 112.200
730.165 115.800
729.572 112.000
728.980 111.600
728.388 111.600
727.796 112.600
727.203 113.200
726.611 125.000
726.019 117.000
725.426 119.000
724.834 118.800
724.242 121.800
723.648 125.800
723.056 116.000
722.464 115.400
721.870 116.800
721.278 116.600
720.685 119.400
720.092 118.800
719.500 133.800
718.906 129.000
718.314 130.200
717.720 129.600
717.127 134.200
716.534 117.600
715.941 132.200
715.347 125.000
714.755 130.400
714.161 134.200
713.568 134.800
712.974 126.400
712.380 131.200
711.787 129.600
711.193 136.200
710.600 137.600
710.006 136.200
709.412 142.200
708.819 140.400
708.224 139.800
707.631 148.000
707.037 146.200
706.443 150.800
705.848 141.800
705.255 143.200
704.660 154.800
704.066 168.400
703.472 155.000
702.878 150.800
702.283 165.200
701.689 147.600
701.095 159.000
700.500 150.800
699.906 156.800
699.311 136.800
698.716 153.600
698.122 149.000
697.527 156.600
696.932 150.600
696.337 167.000
695.742 157.200
695.147 156.200
694.552 164.400
693.957 149.800
693.363 153.200
692.768 160.000
692.173 160.800
691.578 152.800
690.982 159.200
690.387 157.200
689.791 162.000
689.196 164.000
688.601 160.600
688.005 156.200
687.410 170.800
686.814 171.000
686.218 162.200
685.623 170.200
685.027 167.600
684.431 169.400
683.835 168.800
683.239 174.600
682.643 175.000
682.047 177.800
681.451 179.200
680.855 183.600
680.259 185.400
679.663 193.600
679.066 192.800
678.470 199.600
677.874 217.200
677.278 222.400
676.682 217.400
676.084 225.400
675.488 222.000
674.892 222.200
674.296 221.600
673.698 232.600
673.102 227.000
672.505 236.400
671.908 220.000
671.311 204.800
670.715 214.000
670.117 210.000
669.520 202.600
668.924 191.800
668.326 196.600
667.729 197.200
667.132 184.600
666.534 191.800
665.937 177.000
665.339 174.600
664.743 170.400
664.146 163.200
663.548 164.200
662.950 159.200
662.352 151.800
661.755 159.400
661.157 157.400
660.560 154.600
659.961 150.600
659.364 153.800
658.766 146.600
658.168 143.800
657.570 143.200
656.971 138.400
656.374 141.400
655.775 152.600
655.178 155.000
654.579 146.200
653.980 140.200
653.383 155.600
652.784 136.600
652.185 145.800
651.588 152.200
650.989 142.800
650.390 144.400
649.792 140.200
649.193 148.000
648.594 140.000
647.996 146.400
647.397 150.200
646.798 148.000
646.199 142.600
645.599 145.400
645.001 145.200
644.402 149.600
643.803 137.000
643.203 145.200
642.604 142.000
642.006 144.600
641.406 133.200
640.806 146.600
640.207 140.200
639.607 143.200
639.008 128.000
638.408 134.800
637.808 133.600
637.210 144.000
636.610 136.800
636.010 134.600
635.410 132.000
634.810 136.200
634.211 129.800
633.611 142.800
633.011 143.200
632.411 136.200
631.810 136.600
631.210 138.400
630.610 139.400
630.010 135.000
629.410 138.600
628.808 144.000
628.208 138.200
627.608 115.600
627.007 134.800
626.407 132.400
625.807 141.400
625.206 137.200
624.606 139.800
624.004 133.600
623.403 128.800
622.803 135.200
622.202 130.800
621.601 142.200
620.999 130.600
620.399 138.000
619.798 127.000
619.197 131.800
618.596 136.000
617.994 124.400
617.393 131.800
616.792 142.000
616.190 130.600
615.589 129.200
614.988 126.400
614.385 127.000
613.784 133.800
613.183 139.800
612.581 135.200
611.979 133.400
611.378 134.200
610.776 130.600
610.174 133.000
609.572 133.200
608.970 124.000
608.369 127.000
607.766 125.200
607.164 136.200
606.561 135.400
605.960 131.400
605.357 139.800
604.755 137.200
604.152 133.200
603.551 134.400
602.948 135.800
602.346 127.800
601.743 126.600
601.139 137.400
600.537 133.000
599.934 131.800
599.332 123.200
598.729 121.400
598.126 129.600
597.524 119.200
596.920 119.400
596.318 127.400
595.715 123.400
595.111 129.000
594.509 121.200
593.905 125.400
593.301 123.200
592.698 117.200
592.095 117.600
591.492 125.600
590.888 115.000
590.285 119.800
589.681 117.800
589.078 114.000
588.474 118.600
587.870 118.800
587.267 115.200
586.663 113.800
586.059 116.800
585.455 114.000
584.851 112.000
584.247 113.400
583.644 118.000
583.039 107.400
582.435 110.600
581.831 110.000
581.227 102.600
580.622 118.600
580.018 121.800
579.413 107.000
578.809 106.200
578.204 110.400
577.600 111.600
576.995 111.000
576.390 122.200
575.786 110.000
575.181 108.600
574.576 106.600
573.972 102.200
573.367 106.600
572.762 114.600
572.157 111.000
571.552 103.200
570.947 118.000
570.342 105.600
569.737 104.600
569.131 109.000
568.526 111.600
567.921 104.200
567.315 100.000
566.710 102.600
566.105 108.000
565.498 105.600
564.893 105.800
564.288 102.000
563.682 100.400
563.077 103.600
562.470 94.800
561.865 102.600
561.259 91.800
560.654 98.800
560.047 102.000
559.441 105.600
558.835 100.400
558.228 102.800
557.623 97.200
557.017 109.200
556.410 104.200
555.804 101.800
555.198 107.000
554.591 102.200
553.985 91.200
553.379 99.000
552.772 103.400
552.165 106.600
551.558 109.800
550.952 97.400
550.344 104.400
549.738 98.200
549.131 98.400
548.524 105.000
547.918 99.200
547.310 107.200
546.704 101.800
546.096 100.800
545.489 98.800
544.882 107.000
544.274 93.800
543.668 103.000
543.060 102.800
542.453 99.200
541.845 106.800
541.237 99.200
540.630 102.800
540.022 101.600
539.415 101.400
538.807 100.800
538.199 100.600
537.592 107.600
536.984 103.000
536.376 99.400
535.768 106.200
535.160 98.600
534.552 108.000
533.943 97.600
533.336 93.000
532.728 97.800
532.119 106.200
531.510 97.400
530.903 99.200
530.294 99.200
529.686 99.000
529.077 102.200
528.468 93.200
527.859 100.800
527.252 108.200
526.643 103.600
526.034 101.600
525.425 98.600
524.816 96.400
524.207 104.400
523.598 102.800
522.989 104.600
522.380 105.200
521.772 105.200
521.163 108.200
520.553 95.800
519.944 110.600
519.335 100.200
518.725 103.000
518.116 104.000
517.507 102.800
516.897 105.400
516.288 111.000
515.678 94.200
515.069 101.800
514.458 98.600
513.848 105.800
513.238 110.200
512.629 105.400
512.019 97.600
511.409 98.200
510.799 104.200
510.189 98.800
509.579 104.600
508.968 110.200
508.358 103.000
507.748 100.400
507.138 100.600
506.528 108.600
505.918 105.000
505.307 99.000
504.696 102.200
504.086 102.000
503.476 114.600
502.864 107.200
502.254 99.800
501.644 102.600
501.032 109.000
500.421 101.800
499.811 103.800
499.200 112.200
498.589 109.600
497.978 100.600
497.367 107.800
496.755 109.200
496.145 107.000
495.533 100.800
494.922 103.000
494.311 107.200
493.699 98.200
493.088 97.800
492.476 101.800
491.865 101.000
491.253 113.600
490.641 103.000
490.029 105.600
489.418 105.000
488.806 108.000
488.194 100.400
487.582 102.400
486.971 116.000
486.358 109.200
485.747 114.600
485.134 113.400
484.523 112.600
483.910 112.600
483.298 107.400
482.686 106.800
482.073 102.200
481.461 104.400
480.848 105.600
480.235 105.600
479.624 110.000
479.011 101.200
478.398 104.400
477.786 108.400
477.173 108.600
476.560 115.000
475.948 108.200
475.334 106.200
474.721 106.000
474.108 96.600
473.496 111.200
472.882 104.400
472.269 104.800
471.655 109.200
471.043 105.400
470.430 106.200
469.816 110.400
469.202 112.000
468.589 101.800
467.975 107.000
467.363 105.600
466.749 105.200
466.135 106.200
465.521 104.600
464.907 109.800
464.293 100.600
463.680 102.600
463.066 96.000
462.452 106.600
461.838 98.600
461.223 108.600
460.609 106.600
459.996 102.400
459.382 106.000
458.768 107.200
458.154 110.400
457.538 105.200
456.924 109.200
456.309 103.800
455.695 113.600
455.080 105.800
454.466 106.000
453.851 108.800
453.237 102.600
452.622 98.600
452.008 107.400
451.393 97.000
450.778 104.000
450.162 105.400
449.547 105.800
448.932 103.000
448.318 107.600
447.703 105.400
447.088 105.400
446.472 102.000
445.856 106.600
445.241 109.200
444.626 103.400
444.010 101.800
443.395 108.000
442.780 106.000
442.164 105.600
441.548 116.200
440.932 114.800
440.317 105.400
439.700 99.200
439.085 112.200
438.469 107.000
437.853 112.600
437.237 114.600
436.622 113.200
436.005 118.000
435.389 116.800
434.773 117.200
434.156 118.000
433.541 113.200
432.923 114.600
432.308 123.600
431.690 112.200
431.075 126.400
430.457 123.000
429.841 123.000
429.225 124.800
428.608 117.600
427.992 124.800
427.374 126.400
426.757 128.200
426.141 126.800
425.523 120.600
424.907 136.000
424.289 121.600
423.673 109.800
423.055 121.400
422.438 127.400
421.821 125.600
421.203 126.800
420.587 127.800
419.969 124.800
419.351 132.400
418.734 123.200
418.116 126.000
417.498 127.800
416.882 130.200
416.263 126.800
415.645 136.400
415.027 132.800
414.410 128.400
413.792 128.400
413.174 127.600
412.555 133.400
411.938 125.400
411.320 133.600
410.702 135.400
410.083 131.400
409.466 130.200
408.847 138.400
408.229 129.400
407.610 138.800
406.991 132.800
406.373 132.400
405.754 131.200
405.136 130.400
404.518 128.800
403.899 132.800
403.280 135.400
402.661 135.600
402.042 123.400
401.423 132.600
400.804 129.400
400.185 129.600
399.566 129.400
398.947 127.800
398.328 120.800
397.708 125.800
397.089 121.400
396.470 124.800
395.850 126.600
395.231 125.600
394.612 124.400
393.992 129.600
393.373 125.200
392.753 123.200
392.134 120.800
391.514 128.000
390.893 127.600
390.273 117.800
389.654 115.600
389.034 131.200
388.414 128.200
387.794 121.800
387.174 126.600
386.553 132.000
385.933 132.600
385.313 139.800
384.693 149.600
384.072 149.000
383.452 155.200
382.832 174.200
382.212 173.800
381.590 201.800
380.970 202.600
380.350 222.800
379.729 235.200
379.108 248.600
378.487 271.200
377.867 267.800
377.245 278.400
376.625 288.200
376.004 303.200
375.382 301.000
374.762 326.200
374.141 324.600
373.519 349.000
372.898 364.400
372.276 378.400
371.655 404.200
371.033 395.800
370.412 398.000
369.791 377.600
369.169 371.400
368.548 364.600
367.926 335.800
367.305 320.400
366.682 296.000
366.061 279.800
365.439 269.000
364.818 262.400
364.195 248.400
363.573 243.400
362.951 253.200
362.329 240.800
361.707 256.400
361.084 241.800
360.462 252.800
359.840 269.200
359.217 279.400
358.596 285.600
357.973 292.800
357.350 322.800
356.728 339.600
356.105 352.200
355.482 374.000
354.860 391.000
354.237 405.800
353.614 408.400
352.991 409.600
352.369 416.800
351.745 428.200
351.122 431.400
350.499 419.800
349.876 434.800
349.253 457.000
348.629 472.400
348.006 496.400
347.382 515.800
346.760 582.200
346.136 632.200
345.513 755.600
344.889 903.000
344.265 1121.600
343.641 1374.400
343.018 1721.000
342.395 2019.400
341.771 2273.400
341.147 2365.600
340.523 2312.400
339.899 2071.200
339.275 1768.800
338.651 1443.200
338.027 1195.600
337.403 982.600
336.778 843.600
336.154 757.200
335.530 659.600
334.905 611.400
334.281 560.000
333.657 491.800
333.032 438.400
332.408 401.000
331.783 376.000
331.159 341.600
330.534 324.000
329.909 298.600
329.285 267.800
328.659 268.000
328.034 272.000
327.409 248.400
326.784 246.800
326.159 238.400
325.535 212.600
324.910 232.600
324.283 222.600
323.658 219.000
323.033 216.600
322.408 211.000
321.783 219.000
321.157 219.400
320.531 213.800
319.906 199.400
319.281 205.000
318.654 208.200
318.029 211.600
317.403 211.400
316.777 200.400
316.151 211.600
315.526 212.800
314.899 208.200
314.273 204.800
313.648 193.400
313.021 202.600
312.395 205.200
311.769 207.000
311.142 203.000
310.516 195.400
309.889 211.800
309.263 196.200
308.637 204.000
308.010 193.600
307.384 205.000
306.757 204.000
306.131 207.400
305.503 195.400
304.877 207.800
304.249 211.400
303.623 210.000
302.996 222.400
302.369 210.400
301.742 230.600
301.115 222.800
300.487 248.600
299.861 241.800
299.233 254.800
298.605 266.000
297.979 270.000
297.351 291.800
296.724 293.200
296.096 309.800
295.468 344.200
294.841 370.000
294.213 395.000
293.585 442.600
292.958 490.600
292.330 537.800
291.702 562.600
291.075 583.400
290.446 597.600
289.818 584.600
289.189 556.000
288.562 512.200
287.934 477.600
287.305 435.200
286.677 387.000
286.049 353.400
285.421 314.600
284.792 300.000
284.163 278.200
283.534 262.400
282.907 257.600
282.278 262.600
281.649 247.400
281.020 257.200
280.391 244.400
279.762 245.600
279.133 243.200
278.505 254.600
277.876 243.800
277.247 240.200
276.618 248.800
275.989 236.800
275.359 246.400
274.730 222.800
274.101 212.000
273.471 210.000
272.842 212.200
272.212 204.000
271.583 212.600
270.953 200.800
270.324 204.000
269.694 197.200
269.065 196.200
268.435 196.000
267.805 188.400
267.175 199.600
266.545 197.600
265.916 195.400
265.284 198.200
264.655 192.800
264.025 186.800
263.395 174.000
262.764 187.200
262.134 188.400
261.504 173.600
260.873 179.400
260.243 178.600
259.612 180.400
258.982 173.600
258.352 184.600
257.720 184.600
257.090 186.200
256.459 185.600
255.829 182.000
255.197 190.600
254.566 186.200
253.936 196.600
253.305 195.400
252.673 198.600
252.042 183.600
251.412 159.600
250.780 171.800
250.149 174.600
249.518 168.600
248.886 160.800
248.255 161.600
247.624 155.800
246.992 147.200
246.360 139.800
245.728 136.800
245.097 138.200
244.466 139.400
243.833 138.800
243.202 132.000
242.569 127.200
241.938 130.200
241.305 122.200
240.674 127.000
240.041 125.600
239.410 115.400
238.777 116.800
238.145 111.000
237.512 112.400
236.881 125.000
236.248 107.200
235.616 102.400
234.983 113.000
234.351 103.600
233.718 107.800
233.085 108.800
232.453 107.000
231.820 105.600
231.186 106.400
230.554 106.000
229.921 109.600
229.289 104.200
228.655 105.400
228.022 106.600
227.390 99.200
226.756 102.600
226.123 97.600
225.489 98.400
224.856 99.800
224.223 106.200
223.589 100.800
222.955 101.000
222.323 104.400
221.689 104.600
221.055 106.200
220.421 101.200
219.788 100.600
219.154 99.800
218.520 106.000
217.886 93.200
217.252 99.600
216.618 100.400
215.985 105.800
215.350 94.200
214.716 102.600
214.082 100.600
213.447 101.400
212.813 99.000
212.178 88.400
