834.788 165.200
834.204 162.200
833.621 159.000
833.037 163.000
832.453 164.600
831.870 175.800
831.286 161.000
830.702 175.800
830.118 163.200
829.535 163.600
828.950 165.400
828.367 164.400
827.782 168.600
827.198 167.400
826.615 173.000
826.030 166.000
825.446 166.000
824.861 166.700
824.277 166.000
823.692 170.200
823.109 161.400
822.523 173.400
821.940 153.400
821.354 164.800
820.770 172.400
820.185 166.200
819.601 172.000
819.016 171.400
818.431 167.800
817.846 163.400
817.261 174.200
816.677 171.400
816.091 170.000
815.506 174.400
814.922 165.800
814.336 175.400
813.750 162.200
813.166 173.600
812.580 170.400
811.995 170.800
811.410 162.200
810.824 166.600
810.239 176.800
809.653 168.800
809.068 163.800
808.482 172.400
807.896 169.000
807.310 173.800
806.724 172.400
806.139 172.400
805.553 169.000
804.967 169.600
804.381 163.800
803.795 167.400
803.209 165.800
802.624 164.400
802.037 174.200
801.451 173.600
800.865 160.400
800.278 172.200
799.692 173.200
799.105 168.800
798.519 167.400
797.932 171.000
797.346 168.000
796.759 171.600
796.173 168.600
795.586 171.800
794.999 168.000
794.412 163.400
793.826 164.200
793.239 176.200
792.652 165.400
792.065 170.800
791.478 168.800
790.891 174.400
790.303 164.800
789.716 181.800
789.129 169.400
788.542 170.800
787.955 168.600
787.368 171.800
786.781 174.600
786.192 174.600
785.605 175.400
785.018 166.000
784.430 168.400
783.842 168.200
783.254 165.200
782.667 164.800
782.079 182.800
781.491 174.600
780.903 172.200
780.316 178.000
779.727 153.800
779.139 176.200
778.551 178.000
777.963 176.600
777.375 180.200
776.787 187.600
776.198 184.000
775.610 174.200
775.022 180.800
774.433 175.600
773.845 176.600
773.256 182.200
772.668 168.200
772.079 180.600
771.491 177.200
770.901 179.200
770.313 173.800
769.724 173.600
769.136 169.200
768.546 177.000
767.958 177.800
767.368 185.200
766.780 183.600
766.190 187.000
765.602 173.200
765.012 180.400
764.422 178.600
763.834 180.400
763.244 179.800
762.655 184.600
762.066 179.800
761.476 183.200
760.887 191.200
760.297 186.000
759.707 183.000
759.117 187.600
758.528 190.600
757.938 183.200
757.348 190.600
756.759 189.200
756.169 190.400
755.578 195.600
754.988 191.000
754.398 179.800
753.809 192.600
753.218 192.200
752.628 194.800
752.037 189.400
751.447 191.200
750.858 206.000
750.267 192.200
749.676 190.800
749.086 199.400
748.495 196.800
747.904 195.800
747.314 199.200
746.723 190.600
746.132 196.400
745.541 194.400
744.950 194.400
744.360 203.000
743.769 194.600
743.178 198.200
742.587 202.200
741.996 200.400
741.404 198.600
740.813 198.400
740.222 197.800
739.631 200.800
739.040 192.400
738.449 195.800
737.857 191.200
737.266 192.600
736.674 202.200
736.083 198.600
735.490 204.200
734.899 198.200
734.307 205.800
733.716 186.800
733.124 196.800
732.533 205.800
731.940 204.800
731.348 202.400
730.756 193.600
730.165 206.600
729.572 200.600
728.980 196.600
728.388 207.800
727.796 197.200
727.203 200.600
726.611 207.200
726.019 201.400
725.426 204.800
724.834 202.000
724.242 206.000
723.648 208.000
723.056 201.200
722.464 205.000
721.870 203.400
721.278 214.000
720.685 205.200
720.092 222.600
719.500 225.600
718.906 212.000
718.314 217.800
717.720 222.400
717.127 227.800
716.534 226.400
715.941 218.000
715.347 221.400
714.755 216.400
714.161 223.800
713.568 234.000
712.974 239.600
712.380 232.400
711.787 234.200
711.193 241.600
710.600 248.600
710.006 247.200
709.412 253.400
708.819 257.200
708.224 260.600
707.631 255.600
707.037 256.400
706.443 255.200
705.848 260.800
705.255 264.400
704.660 267.600
704.066 288.400
703.472 270.600
702.878 270.800
702.283 263.400
701.689 274.800
701.095 278.400
700.500 288.600
699.906 280.400
699.311 273.800
698.716 283.400
698.122 287.400
697.527 272.600
696.932 278.600
696.337 287.200
695.742 286.800
695.147 276.200
694.552 275.000
693.957 286.400
693.363 292.200
692.768 281.400
692.173 282.200
691.578 288.200
690.982 288.600
690.387 295.000
689.791 294.000
689.196 286.600
688.601 280.000
688.005 284.200
687.410 297.000
686.814 295.400
686.218 289.200
685.623 306.200
685.027 320.800
684.431 296.800
683.835 315.600
683.239 339.600
682.643 327.200
682.047 315.200
681.451 323.800
680.855 336.600
680.259 333.600
679.663 353.400
679.066 354.200
678.470 365.000
677.874 358.400
677.278 393.200
676.682 387.600
676.084 412.800
675.488 398.800
674.892 394.600
674.296 411.800
673.698 419.800
673.102 404.800
672.505 425.600
671.908 427.800
671.311 407.400
670.715 427.200
670.117 404.800
669.520 403.600
668.924 393.800
668.326 381.000
667.729 387.200
667.132 369.000
666.534 382.200
665.937 369.200
665.339 352.000
664.743 333.600
664.146 338.800
663.548 339.000
662.950 324.800
662.352 323.200
661.755 316.000
661.157 315.600
660.560 307.800
659.961 297.000
659.364 310.600
658.766 304.000
658.168 302.200
657.570 288.800
656.971 287.000
656.374 287.400
655.775 285.800
655.178 279.800
654.579 286.200
653.980 286.800
653.383 273.600
652.784 287.800
652.185 277.800
651.588 274.000
650.989 279.800
650.390 272.600
649.792 271.800
649.193 273.200
648.594 272.200
647.996 274.000
647.397 266.600
646.798 269.800
646.199 277.000
645.599 273.400
645.001 266.600
644.402 260.800
643.803 265.800
643.203 269.800
642.604 267.000
642.006 265.000
641.406 267.800
640.806 251.800
640.207 257.800
639.607 265.400
639.008 264.600
638.408 259.400
637.808 251.200
637.210 255.400
636.610 250.800
636.010 251.800
635.410 256.000
634.810 255.200
634.211 253.800
633.611 259.000
633.011 248.400
632.411 248.600
631.810 257.400
631.210 248.600
630.610 241.400
630.010 252.600
629.410 252.400
628.808 248.200
628.208 253.200
627.608 239.200
627.007 249.800
626.407 246.800
625.807 249.200
625.206 262.200
624.606 255.800
624.004 253.400
623.403 247.600
622.803 247.200
622.202 250.600
621.601 246.600
620.999 259.400
620.399 245.400
619.798 258.000
619.197 247.400
618.596 254.000
617.994 245.600
617.393 247.600
616.792 249.200
616.190 247.200
615.589 245.600
614.988 250.000
614.385 235.200
613.784 242.600
613.183 250.600
612.581 244.800
611.979 238.200
611.378 242.800
610.776 238.600
610.174 228.400
609.572 245.000
608.970 237.600
608.369 244.600
607.766 244.200
607.164 245.600
606.561 238.600
605.960 240.800
605.357 237.400
604.755 226.800
604.152 256.400
603.551 222.800
602.948 235.400
602.346 248.200
601.743 230.000
601.139 238.000
600.537 228.000
599.934 242.200
599.332 237.400
598.729 234.600
598.126 232.600
597.524 238.200
596.920 225.600
596.318 230.800
595.715 227.800
595.111 229.800
594.509 231.000
593.905 225.800
593.301 215.000
592.698 227.400
592.095 225.400
591.492 211.600
590.888 218.000
590.285 217.200
589.681 216.600
589.078 213.600
588.474 207.200
587.870 218.200
587.267 222.600
586.663 221.600
586.059 208.000
585.455 208.200
584.851 206.800
584.247 208.600
583.644 204.800
583.039 210.200
582.435 198.400
581.831 203.600
581.227 207.200
580.622 196.800
580.018 192.000
579.413 193.000
578.809 204.800
578.204 197.200
577.600 196.600
576.995 198.600
576.390 190.600
575.786 196.600
575.181 200.800
574.576 195.400
573.972 200.600
573.367 195.000
572.762 196.000
572.157 193.800
571.552 199.000
570.947 191.600
570.342 198.600
569.737 191.200
569.131 188.200
568.526 179.200
567.921 192.400
567.315 189.200
566.710 181.600
566.105 187.000
565.498 196.000
564.893 190.200
564.288 193.200
563.682 182.600
563.077 183.800
562.470 172.400
561.865 184.600
561.259 186.000
560.654 187.000
560.047 183.400
559.441 183.600
558.835 177.200
558.228 190.000
557.623 188.800
557.017 187.200
556.410 191.600
555.804 189.400
555.198 177.000
554.591 191.200
553.985 182.600
553.379 179.200
552.772 176.600
552.165 175.800
551.558 175.600
550.952 171.200
550.344 178.600
549.738 183.600
549.131 178.400
548.524 184.800
547.918 181.200
547.310 184.000
546.704 182.600
546.096 178.000
545.489 184.600
544.882 184.800
544.274 190.200
543.668 179.000
543.060 180.000
542.453 184.000
541.845 178.800
541.237 180.400
540.630 176.000
540.022 182.800
539.415 182.600
538.807 167.800
538.199 180.000
537.592 175.800
536.984 183.000
536.376 179.600
535.768 179.800
535.160 179.600
534.552 184.400
533.943 186.200
533.336 167.600
532.728 174.600
532.119 177.000
531.510 176.200
530.903 181.800
530.294 184.400
529.686 177.600
529.077 174.000
528.468 181.000
527.859 183.400
527.252 177.600
526.643 178.400
526.034 179.600
525.425 182.000
524.816 179.000
524.207 182.000
523.598 179.800
522.989 182.600
522.380 184.200
521.772 191.800
521.163 181.200
520.553 180.400
519.944 183.400
519.335 174.800
518.725 175.200
518.116 180.400
517.507 175.000
516.897 184.800
516.288 177.400
515.678 173.200
515.069 180.200
514.458 180.400
513.848 174.400
513.238 183.800
512.629 185.800
512.019 186.000
511.409 182.600
510.799 185.000
510.189 182.600
509.579 177.400
508.968 181.200
508.358 187.400
507.748 182.400
507.138 185.800
506.528 191.600
505.918 186.000
505.307 187.600
504.696 182.400
504.086 189.600
503.476 179.000
502.864 196.400
502.254 185.800
501.644 179.600
501.032 177.000
500.421 183.400
499.811 188.000
499.200 183.000
498.589 185.000
497.978 186.800
497.367 187.200
496.755 193.600
496.145 188.400
495.533 183.800
494.922 188.000
494.311 191.000
493.699 188.600
493.088 175.400
492.476 181.000
491.865 189.000
491.253 199.800
490.641 202.200
490.029 201.600
489.418 194.000
488.806 194.800
488.194 201.600
487.582 204.600
486.971 192.000
486.358 199.800
485.747 194.200
485.134 202.200
484.523 205.200
483.910 193.200
483.298 201.000
482.686 197.400
482.073 195.800
481.461 198.800
480.848 198.000
480.235 201.200
479.624 203.000
479.011 199.400
478.398 197.400
477.786 201.000
477.173 195.600
476.560 195.200
475.948 195.200
475.334 201.000
474.721 194.000
474.108 179.800
473.496 202.400
472.882 180.400
472.269 202.200
471.655 196.600
471.043 197.000
470.430 199.400
469.816 198.800
469.202 187.600
468.589 194.200
467.975 200.200
467.363 188.400
466.749 189.000
466.135 192.400
465.521 189.000
464.907 192.600
464.293 189.800
463.680 177.600
463.066 191.400
462.452 196.600
461.838 187.400
461.223 184.600
460.609 186.400
459.996 191.000
459.382 190.800
458.768 193.200
458.154 189.000
457.538 190.400
456.924 185.200
456.309 185.800
455.695 194.600
455.080 179.800
454.466 188.200
453.851 192.600
453.237 197.400
452.622 194.600
452.008 196.400
451.393 196.600
450.778 192.400
450.162 194.400
449.547 190.000
448.932 184.400
448.318 194.400
447.703 192.800
447.088 191.200
446.472 194.800
445.856 192.800
445.241 201.600
444.626 189.600
444.010 203.400
443.395 193.200
442.780 192.200
442.164 194.200
441.548 192.200
440.932 192.600
440.317 196.000
439.700 203.600
439.085 202.000
438.469 211.000
437.853 210.200
437.237 205.200
436.622 207.400
436.005 204.200
435.389 215.800
434.773 209.600
434.156 209.800
433.541 221.800
432.923 213.000
432.308 215.000
431.690 217.200
431.075 223.600
430.457 229.400
429.841 231.400
429.225 222.200
428.608 223.600
427.992 223.000
427.374 243.600
426.757 226.400
426.141 231.800
425.523 235.400
424.907 227.400
424.289 219.200
423.673 223.400
423.055 240.400
422.438 238.800
421.821 244.800
421.203 242.200
420.587 244.800
419.969 239.000
419.351 248.400
418.734 252.200
418.116 244.200
417.498 247.200
416.882 246.800
416.263 243.200
415.645 237.000
415.027 246.600
414.410 243.000
413.792 252.400
413.174 250.400
412.555 252.600
411.938 251.800
411.320 241.200
410.702 247.400
410.083 256.000
409.466 256.600
408.847 265.600
408.229 247.000
407.610 252.800
406.991 262.600
406.373 255.200
405.754 262.400
405.136 263.600
404.518 250.400
403.899 265.600
403.280 251.600
402.661 263.400
402.042 255.600
401.423 254.200
400.804 270.200
400.185 258.400
399.566 256.600
398.947 259.200
398.328 251.000
397.708 258.400
397.089 248.800
396.470 252.200
395.850 254.600
395.231 247.800
394.612 248.000
393.992 247.800
393.373 247.000
392.753 245.600
392.134 248.200
391.514 244.800
390.893 244.600
390.273 247.000
389.654 245.600
389.034 240.000
388.414 260.000
387.794 246.800
387.174 256.200
386.553 262.000
385.933 265.200
385.313 287.200
384.693 286.800
384.072 298.200
383.452 325.600
382.832 344.200
382.212 378.800
381.590 416.600
380.970 467.000
380.350 519.600
379.729 537.000
379.108 580.800
378.487 606.400
377.867 611.200
377.245 610.600
376.625 605.600
376.004 612.000
375.382 617.200
374.762 613.800
374.141 607.200
373.519 615.400
372.898 603.200
372.276 610.400
371.655 598.200
371.033 592.200
370.412 572.000
369.791 573.200
369.169 563.600
368.548 545.800
367.926 548.400
367.305 538.000
366.682 513.600
366.061 533.600
365.439 514.200
364.818 514.200
364.195 509.800
363.573 522.600
362.951 524.600
362.329 510.400
361.707 526.000
361.084 547.000
360.462 554.800
359.840 578.200
359.217 584.000
358.596 613.200
357.973 614.800
357.350 638.200
356.728 660.000
356.105 694.600
355.482 709.400
354.860 745.600
354.237 784.800
353.614 807.000
352.991 845.400
352.369 893.600
351.745 940.200
351.122 1004.600
350.499 1061.000
349.876 1083.800
349.253 1132.200
348.629 1166.000
348.006 1221.600
347.382 1262.400
346.760 1301.000
346.136 1449.400
345.513 1590.000
344.889 1812.600
344.265 2113.400
343.641 2514.800
343.018 3087.200
342.395 3786.000
341.771 4493.400
341.147 4967.600
340.523 5111.200
339.899 4976.800
339.275 4522.800
338.651 3865.200
338.027 3303.600
337.403 2839.600
336.778 2378.000
336.154 2146.600
335.530 1922.000
334.905 1689.800
334.281 1522.400
333.657 1359.000
333.032 1248.400
332.408 1148.800
331.783 1037.600
331.159 945.600
330.534 869.600
329.909 816.400
329.285 761.400
328.659 727.600
328.034 687.400
327.409 638.600
326.784 611.200
326.159 587.200
325.535 570.800
324.910 565.000
324.283 528.600
323.658 549.800
323.033 522.600
322.408 534.000
321.783 508.000
321.157 512.600
320.531 514.800
319.906 510.600
319.281 508.400
318.654 525.200
318.029 505.200
317.403 528.800
316.777 531.800
316.151 517.800
315.526 507.400
314.899 510.200
314.273 521.800
313.648 517.200
313.021 508.800
312.395 496.200
311.769 490.000
311.142 490.600
310.516 504.800
309.889 493.600
309.263 495.800
308.637 483.800
308.010 488.800
307.384 477.600
306.757 491.600
306.131 479.000
305.503 486.400
304.877 501.400
304.249 500.800
303.623 509.800
302.996 509.200
302.369 527.200
301.742 537.200
301.115 528.400
300.487 552.800
299.861 552.200
299.233 580.800
298.605 586.800
297.979 599.600
297.351 618.800
296.724 643.200
296.096 660.000
295.468 711.600
294.841 728.000
294.213 770.400
293.585 803.200
292.958 856.400
292.330 903.200
291.702 962.600
291.075 996.800
290.446 1037.600
289.818 1042.600
289.189 987.200
288.562 963.000
287.934 924.000
287.305 853.600
286.677 806.000
286.049 754.800
285.421 699.000
284.792 652.400
284.163 625.000
283.534 605.000
282.907 568.600
282.278 584.800
281.649 582.400
281.020 551.400
280.391 559.600
279.762 550.200
279.133 543.400
278.505 537.800
277.876 526.000
277.247 540.000
276.618 510.400
275.989 509.200
275.359 491.800
274.730 498.600
274.101 469.800
273.471 470.800
272.842 458.000
272.212 451.600
271.583 438.000
270.953 441.400
270.324 446.600
269.694 421.200
269.065 417.600
268.435 413.800
267.805 418.000
267.175 428.200
266.545 413.000
265.916 409.200
265.284 415.200
264.655 420.200
264.025 416.400
263.395 402.000
262.764 393.800
262.134 388.800
261.504 400.800
260.873 390.800
260.243 403.200
259.612 395.800
258.982 403.000
258.352 383.000
257.720 394.200
257.090 397.400
256.459 386.200
255.829 384.800
255.197 396.000
254.566 388.600
253.936 382.000
253.305 375.400
252.673 367.000
252.042 356.800
251.412 357.000
250.780 347.000
250.149 338.800
249.518 334.200
248.886 312.000
248.255 307.000
247.624 311.000
246.992 303.800
246.360 285.200
245.728 282.200
245.097 276.600
244.466 278.200
243.833 273.000
243.202 257.200
242.569 255.200
241.938 255.800
241.305 244.200
240.674 242.400
240.041 250.000
239.410 229.800
238.777 230.000
238.145 219.200
237.512 226.000
236.881 233.600
236.248 212.400
235.616 224.200
234.983 217.200
234.351 216.800
233.718 215.600
233.085 214.200
232.453 210.200
231.820 210.000
231.186 212.000
230.554 205.200
229.921 212.400
229.289 203.400
228.655 201.600
228.022 202.400
227.390 207.400
226.756 201.400
226.123 203.800
225.489 194.200
224.856 205.400
224.223 201.000
223.589 198.400
222.955 205.600
222.323 205.600
221.689 196.400
221.055 197.400
220.421 193.600
219.788 198.800
219.154 193.800
218.520 187.200
217.886 189.200
217.252 192.200
216.618 197.200
215.985 196.400
215.350 187.400
214.716 191.400
214.082 181.000
213.447 186.000
212.813 189.000
212.178 174.000
