834.788 173.800
834.204 180.000
833.621 173.600
833.037 183.600
832.453 185.400
831.870 184.200
831.286 181.200
830.702 181.000
830.118 183.800
829.535 183.800
828.950 183.600
828.367 181.200
827.782 180.200
827.198 185.000
826.615 188.200
826.030 182.800
825.446 175.800
824.861 185.800
824.277 192.600
823.692 183.400
823.109 181.200
822.523 185.200
821.940 182.000
821.354 186.400
820.770 178.000
820.185 177.000
819.601 180.800
819.016 181.400
818.431 175.400
817.846 187.400
817.261 181.800
816.677 178.200
816.091 185.600
815.506 189.200
814.922 184.800
814.336 188.600
813.750 179.600
813.166 179.400
812.580 183.400
811.995 188.200
811.410 185.200
810.824 175.200
810.239 176.400
809.653 177.400
809.068 174.400
808.482 188.800
807.896 187.800
807.310 175.200
806.724 188.000
806.139 190.200
805.553 177.600
804.967 178.000
804.381 177.000
803.795 184.600
803.209 177.400
802.624 188.400
802.037 179.600
801.451 176.000
800.865 172.600
800.278 186.200
799.692 178.000
799.105 173.200
798.519 181.400
797.932 181.600
797.346 178.800
796.759 181.400
796.173 176.400
795.586 183.600
794.999 185.400
794.412 173.800
793.826 183.000
793.239 172.600
792.652 172.400
792.065 194.600
791.478 185.000
790.891 176.800
790.303 180.800
789.716 184.000
789.129 171.400
788.542 182.000
787.955 171.200
787.368 187.400
786.781 180.600
786.192 181.800
785.605 180.200
785.018 172.200
784.430 182.000
783.842 175.000
783.254 179.400
782.667 181.600
782.079 178.600
781.491 183.200
780.903 182.600
780.316 188.800
779.727 181.000
779.139 181.200
778.551 177.200
777.963 177.600
777.375 185.200
776.787 172.000
776.198 175.200
775.610 184.800
775.022 182.400
774.433 170.000
773.845 181.400
773.256 181.600
772.668 180.600
772.079 175.600
771.491 178.200
770.901 180.400
770.313 172.600
769.724 182.600
769.136 191.400
768.546 183.000
767.958 183.800
767.368 179.600
766.780 174.200
766.190 175.800
765.602 172.200
765.012 178.000
764.422 175.200
763.834 183.200
763.244 172.000
762.655 179.200
762.066 180.600
761.476 181.400
760.887 181.400
760.297 185.800
759.707 182.000
759.117 178.800
758.528 180.200
757.938 189.200
757.348 183.400
756.759 178.000
756.169 188.600
755.578 187.000
754.988 178.200
754.398 178.000
753.809 173.400
753.218 182.000
752.628 183.400
752.037 184.800
751.447 185.600
750.858 178.200
750.267 184.000
749.676 175.800
749.086 186.800
748.495 178.200
747.904 191.000
747.314 179.000
746.723 185.200
746.132 176.800
745.541 168.600
744.950 181.000
744.360 174.200
743.769 184.000
743.178 182.800
742.587 195.800
741.996 177.400
741.404 177.600
740.813 193.000
740.222 184.600
739.631 190.200
739.040 193.800
738.449 184.600
737.857 184.000
737.266 183.200
736.674 187.400
736.083 181.000
735.490 169.000
734.899 186.600
734.307 181.400
733.716 182.800
733.124 185.800
732.533 196.200
731.940 186.800
731.348 190.600
730.756 186.200
730.165 174.200
729.572 188.400
728.980 185.000
728.388 186.800
727.796 178.600
727.203 180.800
726.611 188.000
726.019 177.600
725.426 180.600
724.834 191.200
724.242 182.200
723.648 180.600
723.056 189.400
722.464 192.600
721.870 186.200
721.278 190.600
720.685 190.600
720.092 192.200
719.500 202.200
718.906 189.400
718.314 196.200
717.720 187.200
717.127 187.200
716.534 191.600
715.941 190.200
715.347 188.000
714.755 188.600
714.161 190.600
713.568 196.400
712.974 197.400
712.380 200.800
711.787 196.200
711.193 206.400
710.600 195.600
710.006 198.400
709.412 196.200
708.819 203.400
708.224 192.000
707.631 202.000
707.037 198.000
706.443 202.400
705.848 205.800
705.255 212.000
704.660 206.800
704.066 222.800
703.472 209.400
702.878 206.400
702.283 199.400
701.689 207.800
701.095 204.600
700.500 207.400
699.906 204.600
699.311 195.600
698.716 195.800
698.122 211.400
697.527 204.800
696.932 206.600
696.337 209.000
695.742 210.200
695.147 212.200
694.552 207.600
693.957 209.200
693.363 206.000
692.768 205.200
692.173 211.000
691.578 211.600
690.982 209.800
690.387 215.000
689.791 211.800
689.196 218.000
688.601 212.800
688.005 211.000
687.410 228.600
686.814 209.400
686.218 216.800
685.623 214.800
685.027 213.800
684.431 214.800
683.835 220.400
683.239 226.200
682.643 220.600
682.047 220.400
681.451 225.800
680.855 225.200
680.259 233.000
679.663 232.600
679.066 226.600
678.470 230.800
677.874 231.400
677.278 243.200
676.682 236.000
676.084 251.000
675.488 244.800
674.892 248.000
674.296 245.400
673.698 262.200
673.102 245.800
672.505 248.200
671.908 250.800
671.311 254.400
670.715 248.800
670.117 248.200
669.520 243.600
668.924 258.800
668.326 248.600
667.729 242.400
667.132 245.000
666.534 240.200
665.937 232.000
665.339 223.400
664.743 231.200
664.146 227.800
663.548 236.000
662.950 218.200
662.352 227.000
661.755 220.200
661.157 221.400
660.560 219.800
659.961 205.000
659.364 216.800
658.766 215.800
658.168 222.200
657.570 215.200
656.971 218.200
656.374 209.800
655.775 209.200
655.178 209.600
654.579 205.200
653.980 212.600
653.383 204.600
652.784 200.400
652.185 206.600
651.588 202.200
650.989 200.400
650.390 203.600
649.792 197.800
649.193 203.600
648.594 200.400
647.996 201.400
647.397 203.200
646.798 207.600
646.199 201.600
645.599 194.200
645.001 201.400
644.402 203.200
643.803 202.400
643.203 196.600
642.604 198.600
642.006 199.600
641.406 209.000
640.806 201.400
640.207 194.600
639.607 203.200
639.008 195.800
638.408 194.400
637.808 197.600
637.210 195.600
636.610 205.200
636.010 192.800
635.410 195.800
634.810 200.200
634.211 198.400
633.611 194.800
633.011 205.000
632.411 196.000
631.810 199.600
631.210 189.600
630.610 181.000
630.010 191.600
629.410 188.800
628.808 194.800
628.208 194.800
627.608 171.400
627.007 189.600
626.407 187.200
625.807 195.200
625.206 198.800
624.606 189.600
624.004 192.200
623.403 201.400
622.803 192.800
622.202 193.000
621.601 198.000
620.999 185.200
620.399 192.000
619.798 193.600
619.197 177.800
618.596 191.800
617.994 197.600
617.393 185.000
616.792 189.800
616.190 180.800
615.589 178.400
614.988 184.400
614.385 186.600
613.784 190.000
613.183 191.600
612.581 184.600
611.979 187.200
611.378 190.800
610.776 181.600
610.174 191.000
609.572 186.000
608.970 187.200
608.369 185.800
607.766 181.400
607.164 183.200
606.561 178.800
605.960 185.200
605.357 186.000
604.755 173.800
604.152 180.800
603.551 183.800
602.948 183.800
602.346 190.800
601.743 178.000
601.139 175.000
600.537 181.000
599.934 185.600
599.332 188.200
598.729 179.800
598.126 185.600
597.524 173.800
596.920 183.200
596.318 174.800
595.715 171.400
595.111 183.000
594.509 171.000
593.905 181.600
593.301 182.000
592.698 185.200
592.095 175.000
591.492 175.600
590.888 175.000
590.285 171.000
589.681 172.400
589.078 175.000
588.474 161.800
587.870 177.400
587.267 173.600
586.663 171.400
586.059 179.800
585.455 169.400
584.851 171.000
584.247 179.800
583.644 179.000
583.039 180.000
582.435 171.600
581.831 172.200
581.227 170.400
580.622 164.800
580.018 178.800
579.413 167.000
578.809 171.200
578.204 174.600
577.600 168.000
576.995 169.400
576.390 163.400
575.786 166.000
575.181 166.800
574.576 164.400
573.972 173.000
573.367 171.000
572.762 171.200
572.157 168.800
571.552 167.200
570.947 169.000
570.342 178.800
569.737 155.200
569.131 173.600
568.526 169.200
567.921 165.400
567.315 166.000
566.710 160.200
566.105 163.000
565.498 167.600
564.893 163.200
564.288 163.800
563.682 169.200
563.077 160.800
562.470 151.000
561.865 157.200
561.259 166.400
560.654 158.600
560.047 167.800
559.441 162.600
558.835 164.800
558.228 161.000
557.623 163.400
557.017 164.600
556.410 162.200
555.804 168.200
555.198 162.600
554.591 160.800
553.985 171.400
553.379 158.000
552.772 161.000
552.165 164.800
551.558 157.600
550.952 156.000
550.344 163.400
549.738 158.400
549.131 160.800
548.524 158.200
547.918 152.400
547.310 158.200
546.704 152.000
546.096 161.000
545.489 157.800
544.882 166.000
544.274 162.800
543.668 158.800
543.060 163.400
542.453 160.000
541.845 162.400
541.237 161.400
540.630 155.400
540.022 153.400
539.415 160.200
538.807 167.800
538.199 163.000
537.592 162.400
536.984 157.000
536.376 163.200
535.768 160.800
535.160 156.600
534.552 167.400
533.943 153.000
533.336 157.200
532.728 161.400
532.119 158.000
531.510 159.400
530.903 159.200
530.294 152.600
529.686 161.600
529.077 164.400
528.468 157.800
527.859 161.000
527.252 159.600
526.643 162.600
526.034 161.800
525.425 156.200
524.816 161.400
524.207 159.400
523.598 164.000
522.989 160.600
522.380 158.800
521.772 160.000
521.163 163.000
520.553 161.000
519.944 165.000
519.335 155.600
518.725 157.000
518.116 155.200
517.507 159.800
516.897 159.000
516.288 155.400
515.678 152.600
515.069 155.200
514.458 153.000
513.848 153.800
513.238 156.800
512.629 157.900
512.019 154.200
511.409 148.200
510.799 158.600
510.189 157.600
509.579 157.600
508.968 160.600
508.358 160.000
507.748 156.800
507.138 160.000
506.528 159.000
505.918 157.400
505.307 163.800
504.696 153.600
504.086 165.800
503.476 162.600
502.864 162.800
502.254 165.000
501.644 157.800
501.032 162.000
500.421 162.200
499.811 161.200
499.200 155.600
498.589 169.200
497.978 149.600
497.367 155.000
496.755 156.600
496.145 160.400
495.533 162.400
494.922 160.200
494.311 157.600
493.699 152.200
493.088 156.600
492.476 157.400
491.865 164.000
491.253 164.200
490.641 159.000
490.029 161.600
489.418 163.200
488.806 160.200
488.194 155.800
487.582 162.800
486.971 163.800
486.358 163.400
485.747 161.200
485.134 162.000
484.523 162.400
483.910 162.400
483.298 157.000
482.686 167.800
482.073 166.400
481.461 166.400
480.848 162.000
480.235 170.600
479.624 161.800
479.011 166.200
478.398 162.000
477.786 170.400
477.173 173.000
476.560 169.600
475.948 165.200
475.334 166.400
474.721 168.200
474.108 169.000
473.496 169.000
472.882 159.800
472.269 155.800
471.655 168.800
471.043 163.200
470.430 156.200
469.816 158.400
469.202 161.200
468.589 163.600
467.975 165.400
467.363 164.400
466.749 161.600
466.135 156.600
465.521 165.800
464.907 158.600
464.293 172.200
463.680 157.600
463.066 158.800
462.452 158.600
461.838 154.000
461.223 154.000
460.609 161.000
459.996 155.600
459.382 159.800
458.768 161.400
458.154 157.800
457.538 161.200
456.924 161.600
456.309 159.600
455.695 156.000
455.080 153.600
454.466 152.800
453.851 154.400
453.237 162.800
452.622 161.000
452.008 157.600
451.393 157.200
450.778 156.800
450.162 162.000
449.547 167.400
448.932 155.800
448.318 160.800
447.703 161.200
447.088 158.400
446.472 162.000
445.856 157.400
445.241 162.600
444.626 162.600
444.010 157.200
443.395 151.000
442.780 160.400
442.164 150.000
441.548 166.200
440.932 161.400
440.317 165.600
439.700 159.000
439.085 163.400
438.469 170.800
437.853 162.600
437.237 153.200
436.622 164.000
436.005 165.400
435.389 169.200
434.773 164.400
434.156 169.600
433.541 166.600
432.923 170.400
432.308 159.800
431.690 165.000
431.075 165.200
430.457 175.800
429.841 166.000
429.225 173.200
428.608 165.200
427.992 163.200
427.374 168.200
426.757 172.200
426.141 174.000
425.523 168.800
424.907 177.200
424.289 162.000
423.673 161.200
423.055 172.800
422.438 173.800
421.821 163.400
421.203 177.800
420.587 179.800
419.969 174.600
419.351 171.000
418.734 178.200
418.116 179.800
417.498 171.400
416.882 174.000
416.263 171.000
415.645 174.400
415.027 172.000
414.410 169.400
413.792 170.000
413.174 180.200
412.555 175.600
411.938 168.200
411.320 178.200
410.702 179.000
410.083 179.400
409.466 173.400
408.847 175.200
408.229 174.800
407.610 179.000
406.991 177.600
406.373 170.000
405.754 178.200
405.136 175.000
404.518 172.000
403.899 181.800
403.280 178.600
402.661 176.000
402.042 178.000
401.423 177.800
400.804 180.800
400.185 176.800
399.566 177.200
398.947 181.000
398.328 182.000
397.708 168.800
397.089 183.600
396.470 180.000
395.850 176.800
395.231 169.000
394.612 178.400
393.992 176.600
393.373 177.200
392.753 176.000
392.134 180.600
391.514 182.800
390.893 170.200
390.273 172.000
389.654 185.400
389.034 176.000
388.414 166.400
387.794 177.400
387.174 179.600
386.553 192.400
385.933 182.600
385.313 186.000
384.693 190.400
384.072 210.000
383.452 213.000
382.832 219.600
382.212 227.600
381.590 241.800
380.970 243.800
380.350 264.400
379.729 268.800
379.108 285.200
378.487 284.400
377.867 292.800
377.245 300.000
376.625 297.800
376.004 301.400
375.382 302.000
374.762 293.800
374.141 300.200
373.519 287.200
372.898 282.800
372.276 296.800
371.655 284.400
371.033 294.600
370.412 279.400
369.791 286.600
369.169 285.000
368.548 294.400
367.926 293.600
367.305 311.000
366.682 305.200
366.061 311.000
365.439 305.000
364.818 309.600
364.195 321.400
363.573 308.400
362.951 330.600
362.329 337.600
361.707 337.600
361.084 328.800
360.462 332.200
359.840 344.800
359.217 358.200
358.596 359.400
357.973 357.800
357.350 360.000
356.728 375.000
356.105 365.600
355.482 376.800
354.860 376.600
354.237 377.200
353.614 374.600
352.991 379.600
352.369 394.000
351.745 403.800
351.122 406.200
350.499 419.600
349.876 425.800
349.253 431.600
348.629 456.400
348.006 466.600
347.382 474.800
346.760 496.000
346.136 511.800
345.513 563.800
344.889 618.000
344.265 679.400
343.641 766.000
343.018 859.400
342.395 1017.000
341.771 1164.400
341.147 1318.400
340.523 1416.800
339.899 1440.000
339.275 1369.000
338.651 1262.600
338.027 1136.600
337.403 1014.200
336.778 887.200
336.154 817.800
335.530 751.000
334.905 679.800
334.281 631.600
333.657 571.200
333.032 534.800
332.408 491.000
331.783 455.600
331.159 446.600
330.534 422.000
329.909 398.200
329.285 364.800
328.659 358.200
328.034 339.800
327.409 337.800
326.784 320.200
326.159 318.000
325.535 302.000
324.910 289.400
324.283 306.200
323.658 288.600
323.033 284.800
322.408 295.200
321.783 284.200
321.157 278.000
320.531 282.200
319.906 274.600
319.281 274.600
318.654 276.400
318.029 267.800
317.403 272.800
316.777 276.200
316.151 281.800
315.526 276.800
314.899 272.600
314.273 267.800
313.648 275.600
313.021 266.600
312.395 263.800
311.769 278.400
311.142 267.200
310.516 265.400
309.889 266.800
309.263 272.800
308.637 266.400
308.010 259.000
307.384 272.600
306.757 261.200
306.131 268.000
305.503 256.400
304.877 267.200
304.249 260.600
303.623 263.800
302.996 265.800
302.369 258.600
301.742 269.200
301.115 264.400
300.487 262.400
299.861 271.000
299.233 282.400
298.605 279.400
297.979 284.400
297.351 289.800
296.724 287.800
296.096 284.800
295.468 285.600
294.841 306.400
294.213 307.800
293.585 311.000
292.958 315.200
292.330 320.000
291.702 324.400
291.075 347.000
290.446 337.600
289.818 350.200
289.189 344.000
288.562 333.800
287.934 331.600
287.305 322.000
286.677 320.200
286.049 311.800
285.421 295.600
284.792 298.600
284.163 283.800
283.534 287.800
282.907 259.000
282.278 269.400
281.649 280.800
281.020 264.400
280.391 280.200
279.762 271.400
279.133 257.200
278.505 266.600
277.876 263.600
277.247 260.000
276.618 247.400
275.989 253.600
275.359 261.000
274.730 247.600
274.101 242.400
273.471 255.200
272.842 233.000
272.212 241.800
271.583 236.200
270.953 237.000
270.324 225.600
269.694 220.000
269.065 215.400
268.435 215.600
267.805 225.000
267.175 220.600
266.545 217.200
265.916 225.600
265.284 217.600
264.655 226.000
264.025 229.600
263.395 210.400
262.764 207.200
262.134 219.400
261.504 215.400
260.873 223.400
260.243 218.600
259.612 219.800
258.982 215.400
258.352 212.800
257.720 220.600
257.090 207.800
256.459 215.600
255.829 207.200
255.197 212.800
254.566 210.000
253.936 218.200
253.305 217.600
252.673 222.400
252.042 208.200
251.412 219.000
250.780 197.400
250.149 214.000
249.518 203.000
248.886 203.000
248.255 199.800
247.624 192.200
246.992 192.400
246.360 200.000
245.728 192.600
245.097 186.000
244.466 193.600
243.833 174.400
243.202 181.000
242.569 173.800
241.938 174.800
241.305 173.000
240.674 172.400
240.041 167.600
239.410 165.400
238.777 167.600
238.145 158.200
237.512 159.800
236.881 166.600
236.248 162.200
235.616 149.600
234.983 161.200
234.351 157.200
233.718 153.200
233.085 144.600
232.453 156.600
231.820 151.000
231.186 156.600
230.554 150.200
229.921 149.200
229.289 148.000
228.655 153.000
228.022 150.800
227.390 148.600
226.756 142.800
226.123 136.800
225.489 141.200
224.856 143.000
224.223 147.600
223.589 146.800
222.955 150.400
222.323 142.400
221.689 144.200
221.055 148.600
220.421 144.200
219.788 134.600
219.154 142.800
218.520 140.000
217.886 138.000
217.252 141.600
216.618 143.800
215.985 139.200
215.350 139.400
214.716 132.400
214.082 136.400
213.447 135.800
212.813 133.800
212.178 131.800
