834.788 254.600
834.204 253.800
833.621 251.200
833.037 251.400
832.453 256.400
831.870 259.600
831.286 257.400
830.702 262.400
830.118 254.800
829.535 252.800
828.950 263.600
828.367 259.400
827.782 246.600
827.198 254.800
826.615 265.200
826.030 257.600
825.446 248.000
824.861 253.600
824.277 256.800
823.692 254.800
823.109 251.600
822.523 255.000
821.940 270.600
821.354 261.200
820.770 260.000
820.185 255.200
819.601 250.000
819.016 249.600
818.431 253.000
817.846 257.400
817.261 264.400
816.677 260.600
816.091 260.800
815.506 258.000
814.922 254.200
814.336 258.600
813.750 259.000
813.166 260.200
812.580 261.000
811.995 267.000
811.410 268.800
810.824 262.600
810.239 257.000
809.653 260.200
809.068 255.400
808.482 254.600
807.896 264.600
807.310 263.800
806.724 249.200
806.139 253.600
805.553 265.200
804.967 261.600
804.381 260.400
803.795 253.000
803.209 263.600
802.624 253.400
802.037 243.400
801.451 253.000
800.865 253.000
800.278 257.200
799.692 246.400
799.105 251.400
798.519 259.600
797.932 260.400
797.346 255.000
796.759 269.400
796.173 261.200
795.586 254.200
794.999 251.000
794.412 264.000
793.826 254.600
793.239 263.600
792.652 253.200
792.065 254.000
791.478 253.800
790.891 254.800
790.303 256.200
789.716 257.000
789.129 264.600
788.542 263.000
787.955 263.600
787.368 265.200
786.781 254.400
786.192 258.400
785.605 260.200
785.018 257.000
784.430 260.800
783.842 262.800
783.254 265.400
782.667 263.000
782.079 263.200
781.491 266.200
780.903 269.400
780.316 267.600
779.727 261.400
779.139 267.000
778.551 269.000
777.963 266.800
777.375 264.400
776.787 263.000
776.198 268.400
775.610 266.400
775.022 271.600
774.433 276.600
773.845 274.800
773.256 283.600
772.668 277.400
772.079 271.800
771.491 273.000
770.901 283.600
770.313 266.800
769.724 273.400
769.136 284.000
768.546 269.000
767.958 291.400
767.368 288.400
766.780 255.400
766.190 281.000
765.602 275.800
765.012 270.200
764.422 283.800
763.834 286.800
763.244 287.400
762.655 289.600
762.066 288.000
761.476 287.600
760.887 288.000
760.297 287.800
759.707 278.200
759.117 290.800
758.528 293.400
757.938 297.600
757.348 290.000
756.759 299.600
756.169 285.000
755.578 300.000
754.988 299.800
754.398 286.600
753.809 291.800
753.218 294.200
752.628 299.200
752.037 284.600
751.447 311.000
750.858 301.400
750.267 308.000
749.676 301.400
749.086 307.000
748.495 312.000
747.904 310.800
747.314 295.800
746.723 309.600
746.132 313.000
745.541 291.800
744.950 314.000
744.360 311.000
743.769 299.800
743.178 310.200
742.587 304.400
741.996 306.400
741.404 300.200
740.813 296.000
740.222 311.000
739.631 304.400
739.040 301.800
738.449 309.200
737.857 305.800
737.266 297.200
736.674 312.200
736.083 302.000
735.490 295.400
734.899 296.000
734.307 307.800
733.716 299.800
733.124 307.600
732.533 317.000
731.940 303.000
731.348 308.800
730.756 294.200
730.165 309.600
729.572 304.200
728.980 302.400
728.388 313.800
727.796 307.400
727.203 316.200
726.611 298.400
726.019 299.200
725.426 294.600
724.834 305.600
724.242 311.800
723.648 302.000
723.056 312.200
722.464 302.600
721.870 318.000
721.278 318.600
720.685 324.000
720.092 316.200
719.500 321.200
718.906 317.800
718.314 312.800
717.720 332.400
717.127 320.800
716.534 311.200
715.941 326.800
715.347 333.600
714.755 326.600
714.161 339.600
713.568 343.400
712.974 344.200
712.380 353.400
711.787 356.400
711.193 358.200
710.600 374.800
710.006 369.800
709.412 373.600
708.819 385.600
708.224 390.200
707.631 393.000
707.037 391.800
706.443 396.000
705.848 403.400
705.255 421.800
704.660 423.400
704.066 453.600
703.472 442.200
702.878 453.200
702.283 449.400
701.689 444.600
701.095 463.400
700.500 466.400
699.906 458.600
699.311 442.800
698.716 453.600
698.122 477.400
697.527 467.200
696.932 461.000
696.337 472.800
695.742 474.200
695.147 479.600
694.552 482.600
693.957 469.400
693.363 468.200
692.768 480.200
692.173 464.200
691.578 469.600
690.982 471.000
690.387 476.200
689.791 477.800
689.196 465.600
688.601 487.600
688.005 482.400
687.410 469.000
686.814 508.000
686.218 500.600
685.623 505.400
685.027 510.200
684.431 524.400
683.835 531.800
683.239 555.000
682.643 548.400
682.047 562.800
681.451 562.800
680.855 573.200
680.259 584.800
679.663 591.600
679.066 605.000
678.470 652.600
677.874 664.000
677.278 651.200
676.682 698.400
676.084 697.000
675.488 721.800
674.892 727.400
674.296 743.200
673.698 728.200
673.102 732.200
672.505 732.800
671.908 742.400
671.311 694.000
670.715 696.800
670.117 692.000
669.520 684.600
668.924 654.400
668.326 635.800
667.729 603.200
667.132 583.000
666.534 561.200
665.937 551.600
665.339 534.800
664.743 514.200
664.146 503.600
663.548 475.600
662.950 483.400
662.352 469.600
661.755 431.400
661.157 450.400
660.560 435.600
659.961 425.000
659.364 421.800
658.766 422.200
658.168 437.400
657.570 408.600
656.971 423.200
656.374 404.800
655.775 402.800
655.178 399.800
654.579 402.000
653.980 398.000
653.383 407.400
652.784 397.000
652.185 393.000
651.588 400.000
650.989 403.400
650.390 405.800
649.792 408.200
649.193 405.000
648.594 413.800
647.996 413.400
647.397 410.800
646.798 431.400
646.199 415.600
645.599 420.200
645.001 419.000
644.402 416.800
643.803 415.800
643.203 421.400
642.604 422.800
642.006 422.000
641.406 403.400
640.806 420.800
640.207 402.600
639.607 403.200
639.008 389.400
638.408 403.400
637.808 391.600
637.210 389.200
636.610 381.800
636.010 396.400
635.410 380.400
634.810 386.200
634.211 366.000
633.611 380.800
633.011 372.800
632.411 387.000
631.810 384.600
631.210 369.000
630.610 369.400
630.010 384.000
629.410 384.000
628.808 387.200
628.208 408.400
627.608 376.400
627.007 390.400
626.407 387.800
625.807 393.200
625.206 401.400
624.606 389.600
624.004 407.600
623.403 389.800
622.803 397.200
622.202 391.600
621.601 396.200
620.999 388.200
620.399 383.600
619.798 381.600
619.197 379.000
618.596 392.000
617.994 392.400
617.393 379.800
616.792 375.200
616.190 365.800
615.589 366.400
614.988 358.000
614.385 381.200
613.784 370.800
613.183 359.800
612.581 367.000
611.979 364.200
611.378 365.400
610.776 362.000
610.174 375.000
609.572 361.800
608.970 360.600
608.369 367.000
607.766 369.200
607.164 360.600
606.561 360.600
605.960 365.000
605.357 367.200
604.755 362.400
604.152 376.600
603.551 362.800
602.948 375.600
602.346 368.800
601.743 363.400
601.139 359.200
600.537 370.200
599.934 376.000
599.332 369.400
598.729 348.400
598.126 371.000
597.524 352.000
596.920 338.000
596.318 337.400
595.715 342.000
595.111 347.000
594.509 344.400
593.905 331.800
593.301 333.800
592.698 332.000
592.095 330.000
591.492 331.200
590.888 335.600
590.285 321.600
589.681 330.400
589.078 311.400
588.474 311.400
587.870 312.000
587.267 306.600
586.663 322.400
586.059 313.400
585.455 312.400
584.851 306.800
584.247 307.000
583.644 313.200
583.039 301.600
582.435 304.200
581.831 311.000
581.227 293.400
580.622 305.800
580.018 285.800
579.413 287.600
578.809 289.800
578.204 313.200
577.600 300.000
576.995 288.400
576.390 293.600
575.786 296.600
575.181 293.600
574.576 294.400
573.972 278.000
573.367 294.600
572.762 297.000
572.157 275.600
571.552 286.000
570.947 290.600
570.342 295.000
569.737 292.400
569.131 278.600
568.526 285.000
567.921 279.800
567.315 283.400
566.710 277.400
566.105 284.800
565.498 280.800
564.893 276.200
564.288 281.200
563.682 278.800
563.077 276.200
562.470 272.600
561.865 268.800
561.259 269.400
560.654 272.400
560.047 279.600
559.441 275.200
558.835 274.400
558.228 280.800
557.623 277.200
557.017 277.000
556.410 273.400
555.804 280.000
555.198 259.800
554.591 266.400
553.985 271.200
553.379 271.400
552.772 283.600
552.165 285.000
551.558 277.000
550.952 264.400
550.344 265.200
549.738 275.000
549.131 258.200
548.524 263.400
547.918 265.800
547.310 266.600
546.704 270.600
546.096 258.000
545.489 269.000
544.882 273.600
544.274 262.800
543.668 254.800
543.060 269.600
542.453 265.000
541.845 263.200
541.237 269.000
540.630 270.400
540.022 280.800
539.415 274.200
538.807 266.600
538.199 258.600
537.592 262.000
536.984 268.400
536.376 271.200
535.768 263.000
535.160 265.400
534.552 270.800
533.943 254.800
533.336 273.600
532.728 273.200
532.119 270.800
531.510 254.600
530.903 264.200
530.294 269.000
529.686 272.800
529.077 265.000
528.468 262.600
527.859 265.400
527.252 271.000
526.643 267.000
526.034 278.200
525.425 267.400
524.816 263.600
524.207 268.400
523.598 260.600
522.989 263.000
522.380 262.400
521.772 256.200
521.163 266.000
520.553 264.000
519.944 259.200
519.335 267.600
518.725 266.800
518.116 267.000
517.507 263.000
516.897 266.800
516.288 274.000
515.678 272.600
515.069 275.800
514.458 259.000
513.848 259.600
513.238 272.000
512.629 272.800
512.019 272.200
511.409 265.600
510.799 272.200
510.189 269.400
509.579 261.200
508.968 269.400
508.358 271.400
507.748 263.600
507.138 271.200
506.528 267.400
505.918 272.000
505.307 259.200
504.696 276.400
504.086 286.400
503.476 277.400
502.864 279.800
502.254 271.800
501.644 273.200
501.032 282.000
500.421 281.800
499.811 271.800
499.200 280.000
498.589 285.400
497.978 290.200
497.367 295.400
496.755 293.800
496.145 285.800
495.533 274.600
494.922 279.200
494.311 293.800
493.699 279.200
493.088 269.200
492.476 281.800
491.865 284.000
491.253 294.000
490.641 296.000
490.029 294.600
489.418 294.400
488.806 298.800
488.194 291.400
487.582 297.200
486.971 309.400
486.358 296.000
485.747 299.400
485.134 284.400
484.523 303.600
483.910 290.800
483.298 307.800
482.686 284.200
482.073 287.600
481.461 297.400
480.848 288.600
480.235 296.000
479.624 286.600
479.011 295.200
478.398 295.600
477.786 290.200
477.173 293.200
476.560 286.000
475.948 282.800
475.334 283.000
474.721 282.200
474.108 281.800
473.496 289.600
472.882 279.200
472.269 275.400
471.655 280.400
471.043 294.000
470.430 273.800
469.816 271.400
469.202 275.200
468.589 270.800
467.975 273.800
467.363 268.200
466.749 270.000
466.135 260.400
465.521 267.200
464.907 283.600
464.293 275.000
463.680 270.600
463.066 281.600
462.452 265.000
461.838 263.800
461.223 270.400
460.609 276.600
459.996 267.200
459.382 275.600
458.768 275.000
458.154 281.400
457.538 276.600
456.924 271.800
456.309 272.000
455.695 266.800
455.080 256.400
454.466 274.400
453.851 282.800
453.237 275.400
452.622 285.600
452.008 266.000
451.393 285.200
450.778 276.400
450.162 285.600
449.547 280.400
448.932 281.000
448.318 278.400
447.703 274.600
447.088 283.400
446.472 290.200
445.856 275.000
445.241 287.200
444.626 290.200
444.010 288.200
443.395 282.400
442.780 286.000
442.164 290.600
441.548 299.600
440.932 297.400
440.317 291.400
439.700 277.600
439.085 293.600
438.469 295.800
437.853 302.000
437.237 300.800
436.622 305.400
436.005 318.800
435.389 293.400
434.773 313.400
434.156 309.400
433.541 295.800
432.923 328.200
432.308 320.000
431.690 324.400
431.075 326.400
430.457 339.200
429.841 334.000
429.225 328.000
428.608 327.400
427.992 340.000
427.374 338.200
426.757 337.600
426.141 332.000
425.523 329.800
424.907 337.400
424.289 341.200
423.673 335.200
423.055 340.600
422.438 347.800
421.821 359.600
421.203 347.400
420.587 356.000
419.969 361.800
419.351 365.600
418.734 357.800
418.116 359.200
417.498 362.200
416.882 362.000
416.263 354.000
415.645 364.800
415.027 371.000
414.410 363.200
413.792 381.600
413.174 362.800
412.555 376.600
411.938 374.800
411.320 366.800
410.702 381.200
410.083 373.200
409.466 378.000
408.847 390.400
408.229 370.400
407.610 370.200
406.991 385.800
406.373 385.000
405.754 387.200
405.136 375.000
404.518 373.000
403.899 380.200
403.280 382.600
402.661 382.800
402.042 373.000
401.423 375.800
400.804 370.000
400.185 360.200
399.566 359.200
398.947 370.400
398.328 362.200
397.708 342.200
397.089 360.200
396.470 368.800
395.850 356.200
395.231 354.200
394.612 355.000
393.992 345.200
393.373 349.800
392.753 354.800
392.134 334.400
391.514 350.000
390.893 342.800
390.273 347.600
389.654 330.200
389.034 347.600
388.414 345.400
387.794 347.600
387.174 348.400
386.553 356.600
385.933 353.400
385.313 347.800
384.693 363.600
384.072 366.000
383.452 368.800
382.832 371.000
382.212 401.000
381.590 415.600
380.970 435.600
380.350 449.200
379.729 469.200
379.108 464.800
378.487 496.400
377.867 493.600
377.245 523.200
376.625 518.800
376.004 529.600
375.382 539.200
374.762 564.800
374.141 591.200
373.519 619.000
372.898 628.000
372.276 654.200
371.655 687.400
371.033 726.600
370.412 739.000
369.791 778.800
369.169 779.400
368.548 805.200
367.926 809.000
367.305 826.600
366.682 826.200
366.061 823.600
365.439 834.400
364.818 809.400
364.195 801.200
363.573 786.600
362.951 784.600
362.329 803.400
361.707 815.600
361.084 837.800
360.462 885.400
359.840 913.200
359.217 989.800
358.596 1052.600
357.973 1137.000
357.350 1204.000
356.728 1275.800
356.105 1329.000
355.482 1377.200
354.860 1391.400
354.237 1386.000
353.614 1389.200
352.991 1436.400
352.369 1463.600
351.745 1563.600
351.122 1662.600
350.499 1792.000
349.876 1856.800
349.253 1900.800
348.629 1979.200
348.006 2054.400
347.382 2129.800
346.760 2216.200
346.136 2503.400
345.513 2794.000
344.889 3273.200
344.265 4030.600
343.641 5108.800
343.018 6662.200
342.395 8468.600
341.771 10156.800
341.147 11078.800
340.523 10972.000
339.899 10085.000
339.275 8427.600
338.651 6618.200
338.027 5156.000
337.403 4093.600
336.778 3373.800
336.154 2908.200
335.530 2534.800
334.905 2241.400
334.281 1996.400
333.657 1764.000
333.032 1574.600
332.408 1379.400
331.783 1247.200
331.159 1137.600
330.534 1022.800
329.909 955.000
329.285 887.200
328.659 829.600
328.034 774.400
327.409 751.800
326.784 709.200
326.159 665.600
325.535 648.600
324.910 607.600
324.283 610.800
323.658 604.600
323.033 579.200
322.408 583.000
321.783 573.600
321.157 566.800
320.531 563.600
319.906 572.400
319.281 568.600
318.654 563.000
318.029 553.600
317.403 561.200
316.777 559.200
316.151 531.600
315.526 548.200
314.899 557.400
314.273 546.000
313.648 537.400
313.021 555.600
312.395 557.200
311.769 546.000
311.142 538.400
310.516 542.000
309.889 550.200
309.263 550.800
308.637 545.600
308.010 542.600
307.384 565.800
306.757 568.200
306.131 576.800
305.503 575.800
304.877 592.200
304.249 583.600
303.623 590.400
302.996 612.600
302.369 620.800
301.742 626.000
301.115 624.800
300.487 652.200
299.861 655.400
299.233 660.200
298.605 711.200
297.979 737.400
297.351 777.800
296.724 828.600
296.096 926.400
295.468 993.800
294.841 1127.800
294.213 1275.400
293.585 1485.600
292.958 1683.800
292.330 1983.000
291.702 2236.400
291.075 2456.800
290.446 2616.000
289.818 2670.600
289.189 2578.400
288.562 2402.600
287.934 2150.600
287.305 1839.600
286.677 1611.200
286.049 1402.000
285.421 1225.000
284.792 1080.000
284.163 966.200
283.534 887.200
282.907 794.600
282.278 759.800
281.649 725.200
281.020 683.600
280.391 654.200
279.762 628.800
279.133 615.400
278.505 603.800
277.876 596.800
277.247 605.600
276.618 608.200
275.989 595.600
275.359 602.800
274.730 603.400
274.101 598.200
273.471 557.200
272.842 565.800
272.212 551.000
271.583 566.400
270.953 553.800
270.324 545.600
269.694 535.800
269.065 549.200
268.435 528.600
267.805 522.000
267.175 532.400
266.545 520.000
265.916 544.200
265.284 532.000
264.655 538.400
264.025 538.400
263.395 534.800
262.764 520.600
262.134 518.800
261.504 521.400
260.873 516.400
260.243 542.200
259.612 519.800
258.982 542.000
258.352 535.000
257.720 536.600
257.090 543.400
256.459 538.200
255.829 541.200
255.197 541.000
254.566 540.600
253.936 519.000
253.305 509.400
252.673 508.800
252.042 501.000
251.412 495.800
250.780 482.200
250.149 469.200
249.518 467.400
248.886 445.800
248.255 422.600
247.624 431.400
246.992 426.000
246.360 400.400
245.728 412.200
245.097 395.600
244.466 376.600
243.833 383.200
243.202 385.800
242.569 380.400
241.938 359.000
241.305 346.800
240.674 348.600
240.041 351.400
239.410 346.400
238.777 329.800
238.145 338.600
237.512 339.800
236.881 351.200
236.248 330.000
235.616 332.200
234.983 320.200
234.351 320.000
233.718 311.400
233.085 317.600
232.453 314.000
231.820 313.800
231.186 310.400
230.554 305.200
229.921 305.000
229.289 301.400
228.655 301.600
228.022 301.000
227.390 291.600
226.756 297.800
226.123 289.600
225.489 295.600
224.856 292.200
224.223 291.000
223.589 300.200
222.955 289.800
222.323 293.000
221.689 301.800
221.055 291.800
220.421 275.400
219.788 281.400
219.154 282.000
218.520 286.400
217.886 279.200
217.252 274.800
216.618 273.400
215.985 277.800
215.350 279.800
214.716 262.600
214.082 271.000
213.447 268.200
212.813 262.400
212.178 256.600
