834.788 252.400
834.204 232.400
833.621 234.400
833.037 247.800
832.453 241.400
831.870 226.400
831.286 240.000
830.702 233.000
830.118 241.600
829.535 244.200
828.950 234.600
828.367 242.600
827.782 241.600
827.198 243.600
826.615 248.000
826.030 250.400
825.446 246.400
824.861 244.100
824.277 237.600
823.692 244.000
823.109 234.400
822.523 235.600
821.940 233.800
821.354 245.000
820.770 243.200
820.185 241.400
819.601 240.600
819.016 250.000
818.431 245.400
817.846 240.600
817.261 248.200
816.677 240.800
816.091 240.000
815.506 250.000
814.922 242.400
814.336 250.000
813.750 250.400
813.166 244.400
812.580 247.200
811.995 238.400
811.410 258.200
810.824 241.000
810.239 244.000
809.653 231.200
809.068 240.400
808.482 235.200
807.896 239.000
807.310 247.200
806.724 241.000
806.139 249.000
805.553 244.000
804.967 239.400
804.381 247.400
803.795 241.000
803.209 245.800
802.624 237.600
802.037 242.000
801.451 237.800
800.865 250.600
800.278 240.400
799.692 233.000
799.105 243.000
798.519 232.600
797.932 243.400
797.346 241.600
796.759 239.200
796.173 245.800
795.586 241.000
794.999 240.400
794.412 236.400
793.826 252.800
793.239 242.200
792.652 237.800
792.065 243.400
791.478 241.600
790.891 251.200
790.303 247.600
789.716 237.000
789.129 246.400
788.542 245.600
787.955 233.800
787.368 242.000
786.781 238.800
786.192 246.800
785.605 246.400
785.018 232.600
784.430 237.400
783.842 252.000
783.254 248.800
782.667 254.200
782.079 235.400
781.491 248.000
780.903 249.800
780.316 245.400
779.727 249.400
779.139 234.800
778.551 251.600
777.963 256.600
777.375 257.000
776.787 251.800
776.198 246.400
775.610 257.000
775.022 249.400
774.433 255.000
773.845 249.600
773.256 261.000
772.668 246.000
772.079 256.800
771.491 258.400
770.901 249.000
770.313 246.800
769.724 256.000
769.136 260.000
768.546 252.200
767.958 253.400
767.368 256.200
766.780 254.800
766.190 258.200
765.602 257.200
765.012 257.400
764.422 251.200
763.834 264.000
763.244 269.600
762.655 246.200
762.066 264.600
761.476 257.800
760.887 263.000
760.297 263.800
759.707 269.200
759.117 272.000
758.528 264.400
757.938 277.200
757.348 258.000
756.759 272.800
756.169 254.400
755.578 270.000
754.988 264.200
754.398 266.200
753.809 257.200
753.218 272.600
752.628 270.000
752.037 268.000
751.447 271.200
750.858 262.200
750.267 275.800
749.676 271.000
749.086 270.000
748.495 275.400
747.904 280.600
747.314 271.800
746.723 277.400
746.132 271.400
745.541 286.000
744.950 275.200
744.360 280.600
743.769 274.400
743.178 274.200
742.587 275.600
741.996 275.800
741.404 278.600
740.813 278.000
740.222 281.200
739.631 276.400
739.040 270.800
738.449 276.000
737.857 267.200
737.266 274.600
736.674 284.000
736.083 283.400
735.490 287.600
734.899 287.200
734.307 287.400
733.716 278.600
733.124 279.400
732.533 278.000
731.940 282.200
731.348 271.800
730.756 292.800
730.165 288.200
729.572 282.200
728.980 275.600
728.388 282.800
727.796 285.000
727.203 280.400
726.611 280.200
726.019 278.200
725.426 284.200
724.834 288.600
724.242 282.800
723.648 301.000
723.056 278.200
722.464 286.600
721.870 285.400
721.278 280.000
720.685 292.400
720.092 290.200
719.500 296.400
718.906 292.400
718.314 293.400
717.720 302.000
717.127 303.000
716.534 294.600
715.941 306.200
715.347 303.800
714.755 322.000
714.161 292.200
713.568 311.000
712.974 311.000
712.380 315.600
711.787 318.000
711.193 313.800
710.600 311.800
710.006 330.400
709.412 335.400
708.819 329.800
708.224 340.800
707.631 349.400
707.037 334.600
706.443 341.600
705.848 356.000
705.255 358.600
704.660 362.800
704.066 391.400
703.472 372.400
702.878 366.200
702.283 371.000
701.689 382.000
701.095 381.600
700.500 394.000
699.906 388.400
699.311 396.000
698.716 386.400
698.122 386.400
697.527 392.000
696.932 401.400
696.337 403.800
695.742 407.400
695.147 402.800
694.552 415.600
693.957 407.000
693.363 407.200
692.768 412.600
692.173 421.800
691.578 401.400
690.982 404.200
690.387 408.400
689.791 415.800
689.196 413.200
688.601 404.600
688.005 407.400
687.410 401.600
686.814 393.000
686.218 416.400
685.623 413.000
685.027 409.200
684.431 415.200
683.835 417.000
683.239 433.400
682.643 425.000
682.047 443.600
681.451 447.800
680.855 456.800
680.259 447.200
679.663 467.200
679.066 474.600
678.470 472.800
677.874 482.800
677.278 495.200
676.682 499.200
676.084 520.400
675.488 522.800
674.892 542.200
674.296 543.600
673.698 542.000
673.102 561.400
672.505 563.000
671.908 558.000
671.311 565.800
670.715 557.200
670.117 571.200
669.520 563.600
668.924 553.200
668.326 540.400
667.729 530.800
667.132 540.400
666.534 506.000
665.937 511.000
665.339 510.000
664.743 468.000
664.146 476.800
663.548 465.600
662.950 448.800
662.352 441.000
661.755 450.200
661.157 429.400
660.560 427.400
659.961 417.000
659.364 415.000
658.766 391.600
658.168 391.800
657.570 386.000
656.971 387.000
656.374 394.200
655.775 385.800
655.178 379.800
654.579 381.000
653.980 374.600
653.383 378.000
652.784 383.800
652.185 374.400
651.588 380.000
650.989 382.200
650.390 381.800
649.792 382.000
649.193 374.400
648.594 364.200
647.996 363.400
647.397 374.000
646.798 374.600
646.199 374.600
645.599 383.800
645.001 383.200
644.402 384.200
643.803 377.800
643.203 367.800
642.604 370.400
642.006 376.000
641.406 364.600
640.806 374.800
640.207 366.800
639.607 366.200
639.008 370.000
638.408 369.400
637.808 361.200
637.210 359.400
636.610 363.600
636.010 353.400
635.410 349.000
634.810 368.400
634.211 349.800
633.611 345.400
633.011 363.800
632.411 352.200
631.810 362.400
631.210 349.400
630.610 340.200
630.010 351.400
629.410 346.800
628.808 354.200
628.208 350.200
627.608 324.400
627.007 361.400
626.407 355.200
625.807 358.200
625.206 353.600
624.606 344.600
624.004 348.600
623.403 353.200
622.803 357.000
622.202 357.600
621.601 352.000
620.999 354.600
620.399 344.800
619.798 352.600
619.197 346.200
618.596 352.600
617.994 330.600
617.393 337.800
616.792 335.200
616.190 351.600
615.589 343.200
614.988 341.800
614.385 336.600
613.784 339.800
613.183 337.400
612.581 327.200
611.979 333.200
611.378 335.200
610.776 342.200
610.174 336.800
609.572 343.600
608.970 329.600
608.369 325.000
607.766 339.600
607.164 335.200
606.561 336.600
605.960 331.800
605.357 333.600
604.755 327.800
604.152 323.800
603.551 334.600
602.948 329.400
602.346 335.800
601.743 336.400
601.139 340.800
600.537 329.200
599.934 339.400
599.332 340.400
598.729 339.000
598.126 332.600
597.524 338.600
596.920 325.200
596.318 319.400
595.715 317.000
595.111 324.800
594.509 314.600
593.905 324.200
593.301 318.200
592.698 309.200
592.095 312.000
591.492 313.400
590.888 306.200
590.285 309.400
589.681 308.200
589.078 305.800
588.474 294.800
587.870 307.200
587.267 311.600
586.663 311.200
586.059 299.400
585.455 291.400
584.851 293.600
584.247 289.400
583.644 283.600
583.039 297.600
582.435 296.000
581.831 287.400
581.227 288.200
580.622 294.000
580.018 279.600
579.413 279.600
578.809 280.400
578.204 267.800
577.600 291.400
576.995 292.400
576.390 268.600
575.786 278.600
575.181 271.600
574.576 287.000
573.972 273.600
573.367 283.000
572.762 282.800
572.157 274.000
571.552 280.000
570.947 275.800
570.342 269.000
569.737 274.800
569.131 276.600
568.526 275.000
567.921 272.400
567.315 275.600
566.710 268.200
566.105 263.000
565.498 272.800
564.893 269.200
564.288 271.400
563.682 264.000
563.077 272.200
562.470 265.600
561.865 261.000
561.259 264.600
560.654 263.600
560.047 262.000
559.441 267.800
558.835 272.600
558.228 269.800
557.623 263.600
557.017 255.400
556.410 252.000
555.804 270.400
555.198 265.800
554.591 271.400
553.985 264.600
553.379 267.800
552.772 264.000
552.165 265.800
551.558 260.000
550.952 269.400
550.344 269.800
549.738 264.000
549.131 267.000
548.524 275.000
547.918 258.400
547.310 256.200
546.704 276.400
546.096 255.400
545.489 262.000
544.882 258.200
544.274 249.600
543.668 258.400
543.060 261.400
542.453 261.400
541.845 254.000
541.237 261.000
540.630 252.200
540.022 264.400
539.415 256.400
538.807 272.400
538.199 258.600
537.592 255.200
536.984 255.800
536.376 257.600
535.768 250.400
535.160 254.400
534.552 257.000
533.943 256.600
533.336 256.000
532.728 265.600
532.119 255.000
531.510 254.800
530.903 266.600
530.294 268.800
529.686 254.000
529.077 257.200
528.468 262.400
527.859 259.200
527.252 256.000
526.643 254.600
526.034 260.200
525.425 262.400
524.816 252.800
524.207 255.600
523.598 265.000
522.989 259.400
522.380 255.000
521.772 258.000
521.163 258.400
520.553 266.400
519.944 256.600
519.335 262.200
518.725 259.800
518.116 244.200
517.507 259.000
516.897 259.800
516.288 259.200
515.678 258.200
515.069 254.800
514.458 255.200
513.848 257.600
513.238 248.000
512.629 258.400
512.019 266.800
511.409 254.200
510.799 262.400
510.189 258.400
509.579 252.000
508.968 257.000
508.358 256.000
507.748 259.200
507.138 257.000
506.528 267.800
505.918 258.600
505.307 261.600
504.696 255.000
504.086 256.000
503.476 266.800
502.864 257.600
502.254 259.200
501.644 264.400
501.032 261.800
500.421 263.200
499.811 255.600
499.200 268.600
498.589 263.000
497.978 278.800
497.367 263.600
496.755 266.000
496.145 266.400
495.533 272.800
494.922 269.400
494.311 279.400
493.699 269.200
493.088 261.200
492.476 276.000
491.865 261.200
491.253 272.400
490.641 282.800
490.029 272.000
489.418 271.200
488.806 279.400
488.194 275.600
487.582 278.600
486.971 282.000
486.358 279.400
485.747 275.200
485.134 275.000
484.523 278.800
483.910 285.200
483.298 274.800
482.686 290.400
482.073 274.600
481.461 281.800
480.848 274.200
480.235 284.800
479.624 283.800
479.011 272.200
478.398 270.600
477.786 280.200
477.173 276.000
476.560 282.200
475.948 290.200
475.334 280.200
474.721 277.400
474.108 280.200
473.496 276.800
472.882 283.600
472.269 277.800
471.655 283.600
471.043 279.200
470.430 277.400
469.816 269.800
469.202 275.400
468.589 280.200
467.975 267.200
467.363 274.400
466.749 274.000
466.135 275.400
465.521 262.200
464.907 273.200
464.293 265.200
463.680 274.200
463.066 260.200
462.452 265.800
461.838 263.000
461.223 270.800
460.609 263.000
459.996 274.400
459.382 281.600
458.768 277.000
458.154 265.400
457.538 273.800
456.924 264.400
456.309 261.800
455.695 273.800
455.080 263.600
454.466 271.800
453.851 269.400
453.237 258.600
452.622 272.600
452.008 274.600
451.393 271.000
450.778 268.400
450.162 270.800
449.547 276.600
448.932 274.400
448.318 272.200
447.703 262.800
447.088 277.400
446.472 272.200
445.856 266.200
445.241 275.200
444.626 272.800
444.010 264.400
443.395 274.000
442.780 281.200
442.164 284.400
441.548 287.600
440.932 277.000
440.317 277.400
439.700 285.200
439.085 274.000
438.469 282.200
437.853 292.400
437.237 274.200
436.622 278.200
436.005 292.000
435.389 295.400
434.773 296.000
434.156 294.000
433.541 291.200
432.923 292.000
432.308 297.800
431.690 307.600
431.075 309.800
430.457 303.600
429.841 299.600
429.225 306.800
428.608 302.600
427.992 311.000
427.374 313.800
426.757 304.800
426.141 319.400
425.523 306.800
424.907 313.400
424.289 313.200
423.673 313.400
423.055 315.400
422.438 322.600
421.821 315.000
421.203 326.400
420.587 320.600
419.969 331.800
419.351 342.400
418.734 322.800
418.116 343.400
417.498 331.600
416.882 327.400
416.263 334.400
415.645 328.400
415.027 339.600
414.410 341.200
413.792 346.600
413.174 334.800
412.555 350.200
411.938 336.800
411.320 348.000
410.702 332.000
410.083 336.400
409.466 342.600
408.847 352.200
408.229 332.600
407.610 347.200
406.991 350.400
406.373 348.600
405.754 351.000
405.136 358.600
404.518 339.600
403.899 345.400
403.280 342.400
402.661 337.400
402.042 338.800
401.423 346.400
400.804 351.600
400.185 336.400
399.566 340.600
398.947 328.600
398.328 338.400
397.708 335.200
397.089 339.200
396.470 340.400
395.850 337.000
395.231 337.400
394.612 339.800
393.992 333.200
393.373 332.600
392.753 320.800
392.134 331.400
391.514 337.800
390.893 332.200
390.273 335.600
389.654 325.600
389.034 327.200
388.414 327.800
387.794 331.600
387.174 330.400
386.553 326.400
385.933 338.200
385.313 331.000
384.693 328.400
384.072 350.600
383.452 350.400
382.832 355.000
382.212 355.200
381.590 368.200
380.970 388.800
380.350 408.200
379.729 413.000
379.108 437.400
378.487 449.400
377.867 459.600
377.245 495.800
376.625 516.400
376.004 533.600
375.382 550.800
374.762 574.000
374.141 567.400
373.519 600.600
372.898 644.400
372.276 642.400
371.655 670.800
371.033 695.400
370.412 716.200
369.791 753.800
369.169 754.400
368.548 791.200
367.926 783.200
367.305 792.400
366.682 816.200
366.061 825.600
365.439 807.200
364.818 821.800
364.195 829.800
363.573 805.200
362.951 767.000
362.329 791.600
361.707 779.600
361.084 778.600
360.462 812.400
359.840 849.800
359.217 856.400
358.596 911.000
357.973 969.200
357.350 993.600
356.728 1069.800
356.105 1089.600
355.482 1120.200
354.860 1107.600
354.237 1135.800
353.614 1137.800
352.991 1144.200
352.369 1173.400
351.745 1180.800
351.122 1214.400
350.499 1225.800
349.876 1300.800
349.253 1354.000
348.629 1382.800
348.006 1424.000
347.382 1478.600
346.760 1536.600
346.136 1602.600
345.513 1742.000
344.889 1930.800
344.265 2103.600
343.641 2407.200
343.018 2862.600
342.395 3479.000
341.771 4385.800
341.147 5534.600
340.523 6772.800
339.899 7529.000
339.275 7368.000
338.651 6511.200
338.027 5395.600
337.403 4471.200
336.778 3751.000
336.154 3201.600
335.530 2802.600
334.905 2510.600
334.281 2278.400
333.657 2102.600
333.032 1913.800
332.408 1729.400
331.783 1562.400
331.159 1427.200
330.534 1333.200
329.909 1246.000
329.285 1146.800
328.659 1076.200
328.034 1024.400
327.409 970.200
326.784 916.000
326.159 890.400
325.535 865.600
324.910 829.200
324.283 802.600
323.658 773.800
323.033 756.400
322.408 740.400
321.783 734.800
321.157 722.800
320.531 715.000
319.906 698.600
319.281 698.600
318.654 706.400
318.029 712.400
317.403 711.000
316.777 703.600
316.151 705.000
315.526 683.400
314.899 688.400
314.273 675.200
313.648 657.000
313.021 643.400
312.395 637.000
311.769 594.600
311.142 602.400
310.516 584.800
309.889 579.600
309.263 573.800
308.637 561.800
308.010 572.000
307.384 599.600
306.757 567.000
306.131 576.000
305.503 553.400
304.877 579.400
304.249 579.800
303.623 581.600
302.996 572.200
302.369 602.200
301.742 611.200
301.115 598.000
300.487 602.400
299.861 615.000
299.233 626.200
298.605 630.400
297.979 665.800
297.351 683.600
296.724 710.600
296.096 749.400
295.468 783.400
294.841 818.800
294.213 867.600
293.585 975.200
292.958 1063.400
292.330 1187.600
291.702 1341.200
291.075 1483.200
290.446 1637.000
289.818 1779.400
289.189 1857.400
288.562 1899.400
287.934 1819.400
287.305 1708.200
286.677 1519.600
286.049 1374.400
285.421 1253.000
284.792 1106.800
284.163 1030.800
283.534 934.200
282.907 854.600
282.278 799.400
281.649 769.200
281.020 727.200
280.391 693.400
279.762 683.800
279.133 650.200
278.505 652.800
277.876 632.000
277.247 623.600
276.618 626.000
275.989 625.200
275.359 643.800
274.730 647.400
274.101 635.600
273.471 625.800
272.842 593.000
272.212 610.200
271.583 591.400
270.953 585.000
270.324 559.200
269.694 554.000
269.065 563.000
268.435 534.600
267.805 539.200
267.175 529.200
266.545 511.000
265.916 524.000
265.284 514.600
264.655 522.600
264.025 514.400
263.395 519.000
262.764 481.400
262.134 509.600
261.504 499.200
260.873 491.000
260.243 496.800
259.612 482.800
258.982 508.000
258.352 492.200
257.720 507.200
257.090 495.800
256.459 501.400
255.829 501.000
255.197 484.800
254.566 508.800
253.936 483.200
253.305 500.800
252.673 506.000
252.042 493.400
251.412 495.200
250.780 498.400
250.149 486.600
249.518 469.000
248.886 458.800
248.255 446.400
247.624 433.800
246.992 435.800
246.360 413.600
245.728 411.000
245.097 404.600
244.466 391.600
243.833 385.000
243.202 380.600
242.569 373.400
241.938 373.600
241.305 369.000
240.674 354.400
240.041 361.000
239.410 334.000
238.777 359.800
238.145 332.400
237.512 335.600
236.881 329.800
236.248 326.800
235.616 315.400
234.983 332.800
234.351 315.400
233.718 320.000
233.085 306.800
232.453 297.400
231.820 301.400
231.186 299.400
230.554 310.600
229.921 301.600
229.289 288.600
228.655 307.000
228.022 293.200
227.390 289.400
226.756 290.600
226.123 291.600
225.489 296.000
224.856 291.600
224.223 284.400
223.589 285.400
222.955 293.400
222.323 284.800
221.689 281.800
221.055 291.400
220.421 281.600
219.788 278.600
219.154 275.000
218.520 279.400
217.886 290.400
217.252 283.600
216.618 278.200
215.985 267.600
215.350 256.200
214.716 275.800
214.082 272.600
213.447 269.600
212.813 265.400
212.178 260.600
