834.788 876.800
834.204 857.400
833.621 870.000
833.037 874.200
832.453 885.000
831.870 857.400
831.286 853.800
830.702 856.400
830.118 864.600
829.535 871.400
828.950 868.400
828.367 873.800
827.782 853.400
827.198 871.800
826.615 868.800
826.030 860.000
825.446 876.600
824.861 862.100
824.277 838.000
823.692 887.000
823.109 877.200
822.523 858.400
821.940 860.800
821.354 870.400
820.770 856.800
820.185 865.600
819.601 848.000
819.016 861.800
818.431 868.800
817.846 873.800
817.261 841.000
816.677 853.200
816.091 875.600
815.506 866.600
814.922 870.000
814.336 845.800
813.750 860.400
813.166 868.400
812.580 840.400
811.995 859.800
811.410 849.800
810.824 851.400
810.239 861.800
809.653 866.600
809.068 861.000
808.482 859.600
807.896 870.400
807.310 851.400
806.724 862.400
806.139 854.000
805.553 870.600
804.967 842.600
804.381 848.800
803.795 845.000
803.209 862.000
802.624 875.000
802.037 861.800
801.451 871.000
800.865 867.000
800.278 838.600
799.692 861.600
799.105 853.200
798.519 857.000
797.932 860.600
797.346 873.800
796.759 870.400
796.173 856.400
795.586 879.000
794.999 852.200
794.412 865.200
793.826 861.800
793.239 843.600
792.652 865.600
792.065 860.200
791.478 870.000
790.891 856.000
790.303 852.000
789.716 857.600
789.129 874.400
788.542 868.800
787.955 864.000
787.368 851.600
786.781 862.200
786.192 876.000
785.605 862.800
785.018 867.800
784.430 873.600
783.842 865.200
783.254 857.200
782.667 855.200
782.079 881.200
781.491 867.400
780.903 864.800
780.316 861.600
779.727 868.600
779.139 873.000
778.551 891.000
777.963 866.800
777.375 874.200
776.787 871.600
776.198 884.000
775.610 864.600
775.022 902.800
774.433 865.400
773.845 884.400
773.256 874.600
772.668 862.400
772.079 895.400
771.491 886.000
770.901 873.200
770.313 860.400
769.724 886.000
769.136 877.800
768.546 874.200
767.958 893.000
767.368 874.000
766.780 860.400
766.190 863.000
765.602 872.800
765.012 883.800
764.422 877.800
763.834 884.400
763.244 882.600
762.655 886.200
762.066 873.800
761.476 879.800
760.887 888.000
760.297 876.600
759.707 865.800
759.117 898.400
758.528 872.400
757.938 892.400
757.348 896.000
756.759 898.400
756.169 901.600
755.578 907.600
754.988 896.200
754.398 896.400
753.809 889.400
753.218 891.400
752.628 911.800
752.037 882.800
751.447 871.800
750.858 906.000
750.267 883.200
749.676 889.800
749.086 903.200
748.495 898.600
747.904 893.000
747.314 895.600
746.723 884.200
746.132 914.400
745.541 891.000
744.950 898.400
744.360 903.000
743.769 898.000
743.178 893.200
742.587 922.600
741.996 914.000
741.404 906.400
740.813 904.000
740.222 916.400
739.631 897.200
739.040 919.600
738.449 907.400
737.857 922.400
737.266 931.800
736.674 916.400
736.083 922.400
735.490 916.200
734.899 906.800
734.307 918.600
733.716 938.000
733.124 916.000
732.533 900.800
731.940 901.600
731.348 920.000
730.756 933.600
730.165 936.400
729.572 946.200
728.980 947.800
728.388 921.400
727.796 923.200
727.203 925.200
726.611 934.600
726.019 947.400
725.426 915.400
724.834 939.400
724.242 936.800
723.648 930.400
723.056 954.800
722.464 954.400
721.870 930.200
721.278 960.800
720.685 926.200
720.092 963.800
719.500 956.800
718.906 968.400
718.314 964.600
717.720 949.000
717.127 973.400
716.534 959.400
715.941 958.600
715.347 971.400
714.755 975.400
714.161 983.600
713.568 987.200
712.974 1020.400
712.380 989.000
711.787 1008.000
711.193 993.000
710.600 1030.600
710.006 999.800
709.412 1027.800
708.819 1005.000
708.224 1048.200
707.631 1035.200
707.037 1029.800
706.443 1041.000
705.848 1059.600
705.255 1079.400
704.660 1062.600
704.066 1077.600
703.472 1077.200
702.878 1088.000
702.283 1099.200
701.689 1078.600
701.095 1092.600
700.500 1106.800
699.906 1111.000
699.311 1100.800
698.716 1110.600
698.122 1118.200
697.527 1120.400
696.932 1105.400
696.337 1124.200
695.742 1117.800
695.147 1136.400
694.552 1134.600
693.957 1130.600
693.363 1134.600
692.768 1144.600
692.173 1148.400
691.578 1136.600
690.982 1137.200
690.387 1129.000
689.791 1132.400
689.196 1141.800
688.601 1162.800
688.005 1165.600
687.410 1161.200
686.814 1162.200
686.218 1181.800
685.623 1160.000
685.027 1162.400
684.431 1182.400
683.835 1189.600
683.239 1195.000
682.643 1191.800
682.047 1219.800
681.451 1237.400
680.855 1243.200
680.259 1248.600
679.663 1240.600
679.066 1276.600
678.470 1303.600
677.874 1296.600
677.278 1289.400
676.682 1303.600
676.084 1317.200
675.488 1298.000
674.892 1324.400
674.296 1341.600
673.698 1328.800
673.102 1292.600
672.505 1338.200
671.908 1313.400
671.311 1319.000
670.715 1318.200
670.117 1292.600
669.520 1269.200
668.924 1307.400
668.326 1303.800
667.729 1267.000
667.132 1284.800
666.534 1286.200
665.937 1268.600
665.339 1249.000
664.743 1224.000
664.146 1239.200
663.548 1224.800
662.950 1218.000
662.352 1186.000
661.755 1197.000
661.157 1214.200
660.560 1173.400
659.961 1161.800
659.364 1182.800
658.766 1176.200
658.168 1176.200
657.570 1157.600
656.971 1161.800
656.374 1172.000
655.775 1154.800
655.178 1165.800
654.579 1154.600
653.980 1123.800
653.383 1117.000
652.784 1162.800
652.185 1151.600
651.588 1154.600
650.989 1144.800
650.390 1150.400
649.792 1145.400
649.193 1160.200
648.594 1140.400
647.996 1141.800
647.397 1148.000
646.798 1155.200
646.199 1161.000
645.599 1172.000
645.001 1148.000
644.402 1151.600
643.803 1161.000
643.203 1166.600
642.604 1141.400
642.006 1152.600
641.406 1171.600
640.806 1149.200
640.207 1131.400
639.607 1164.400
639.008 1159.800
638.408 1163.200
637.808 1132.000
637.210 1142.000
636.610 1148.800
636.010 1141.800
635.410 1144.200
634.810 1154.800
634.211 1116.000
633.611 1129.600
633.011 1153.600
632.411 1128.800
631.810 1135.400
631.210 1128.400
630.610 1121.400
630.010 1117.400
629.410 1143.000
628.808 1129.800
628.208 1130.400
627.608 1091.600
627.007 1123.600
626.407 1108.600
625.807 1129.400
625.206 1111.200
624.606 1138.800
624.004 1132.800
623.403 1129.600
622.803 1129.000
622.202 1132.000
621.601 1137.000
620.999 1121.200
620.399 1136.600
619.798 1110.200
619.197 1116.400
618.596 1141.200
617.994 1121.800
617.393 1133.000
616.792 1113.200
616.190 1115.600
615.589 1111.200
614.988 1131.200
614.385 1115.200
613.784 1134.200
613.183 1124.200
612.581 1121.400
611.979 1133.800
611.378 1119.800
610.776 1120.200
610.174 1124.800
609.572 1129.400
608.970 1143.800
608.369 1135.000
607.766 1145.000
607.164 1125.800
606.561 1132.200
605.960 1119.800
605.357 1131.800
604.755 1120.000
604.152 1119.200
603.551 1138.400
602.948 1120.400
602.346 1133.800
601.743 1100.800
601.139 1116.400
600.537 1118.600
599.934 1119.400
599.332 1121.400
598.729 1123.800
598.126 1121.400
597.524 1111.400
596.920 1119.400
596.318 1103.800
595.715 1096.400
595.111 1091.800
594.509 1108.000
593.905 1096.800
593.301 1118.400
592.698 1099.600
592.095 1120.600
591.492 1088.600
590.888 1108.600
590.285 1105.200
589.681 1126.400
589.078 1111.600
588.474 1120.800
587.870 1116.600
587.267 1106.800
586.663 1105.000
586.059 1101.200
585.455 1139.400
584.851 1096.000
584.247 1084.800
583.644 1110.400
583.039 1087.800
582.435 1096.600
581.831 1098.000
581.227 1084.600
580.622 1098.400
580.018 1099.800
579.413 1067.600
578.809 1097.000
578.204 1121.600
577.600 1097.600
576.995 1100.200
576.390 1091.400
575.786 1084.800
575.181 1089.400
574.576 1063.800
573.972 1073.800
573.367 1048.800
572.762 1071.600
572.157 1072.400
571.552 1083.400
570.947 1077.400
570.342 1104.400
569.737 1083.400
569.131 1087.000
568.526 1075.400
567.921 1056.600
567.315 1078.400
566.710 1060.200
566.105 1066.400
565.498 1084.600
564.893 1055.000
564.288 1067.800
563.682 1039.600
563.077 1057.000
562.470 1051.400
561.865 1057.200
561.259 1049.400
560.654 1049.600
560.047 1027.200
559.441 1036.200
558.835 1027.000
558.228 1038.800
557.623 1044.200
557.017 1014.600
556.410 1016.800
555.804 1018.400
555.198 1005.000
554.591 1026.800
553.985 1017.200
553.379 1022.400
552.772 1010.400
552.165 1011.400
551.558 1026.600
550.952 980.200
550.344 1005.600
549.738 989.200
549.131 1003.000
548.524 1001.200
547.918 1012.800
547.310 1003.400
546.704 1007.000
546.096 984.400
545.489 975.800
544.882 986.400
544.274 977.400
543.668 1001.600
543.060 993.200
542.453 983.600
541.845 993.200
541.237 1002.400
540.630 980.000
540.022 984.400
539.415 998.600
538.807 970.200
538.199 984.800
537.592 996.600
536.984 1001.000
536.376 988.400
535.768 980.400
535.160 978.400
534.552 994.800
533.943 991.000
533.336 962.000
532.728 992.000
532.119 976.800
531.510 988.200
530.903 974.000
530.294 948.200
529.686 983.200
529.077 978.400
528.468 991.600
527.859 986.000
527.252 969.000
526.643 973.600
526.034 969.800
525.425 978.400
524.816 983.400
524.207 994.200
523.598 967.400
522.989 972.800
522.380 985.000
521.772 992.600
521.163 996.200
520.553 979.800
519.944 986.800
519.335 976.600
518.725 981.600
518.116 968.200
517.507 990.200
516.897 965.200
516.288 978.200
515.678 969.600
515.069 964.800
514.458 974.400
513.848 977.000
513.238 1005.000
512.629 994.200
512.019 981.600
511.409 989.000
510.799 966.400
510.189 963.600
509.579 986.400
508.968 998.600
508.358 980.200
507.748 995.400
507.138 980.200
506.528 970.200
505.918 973.200
505.307 987.400
504.696 989.400
504.086 981.000
503.476 980.800
502.864 980.200
502.254 967.000
501.644 977.000
501.032 976.200
500.421 982.800
499.811 970.400
499.200 975.000
498.589 983.000
497.978 988.400
497.367 979.600
496.755 976.800
496.145 971.200
495.533 980.400
494.922 977.600
494.311 984.600
493.699 975.600
493.088 964.400
492.476 961.600
491.865 994.400
491.253 968.400
490.641 997.200
490.029 978.800
489.418 972.200
488.806 970.400
488.194 993.800
487.582 973.400
486.971 976.400
486.358 985.200
485.747 982.800
485.134 985.400
484.523 992.400
483.910 971.200
483.298 997.600
482.686 986.600
482.073 982.200
481.461 981.600
480.848 982.600
480.235 994.600
479.624 978.800
479.011 982.600
478.398 967.600
477.786 992.600
477.173 981.400
476.560 985.000
475.948 965.200
475.334 987.200
474.721 981.800
474.108 960.000
473.496 981.200
472.882 994.400
472.269 981.000
471.655 973.600
471.043 978.600
470.430 958.600
469.816 968.200
469.202 971.800
468.589 982.400
467.975 978.200
467.363 964.800
466.749 975.400
466.135 974.200
465.521 962.200
464.907 975.000
464.293 961.800
463.680 977.200
463.066 949.400
462.452 962.200
461.838 945.200
461.223 953.000
460.609 973.400
459.996 969.600
459.382 945.800
458.768 960.200
458.154 969.600
457.538 943.200
456.924 946.000
456.309 958.200
455.695 948.400
455.080 950.600
454.466 976.600
453.851 976.200
453.237 944.800
452.622 960.400
452.008 973.600
451.393 962.600
450.778 956.600
450.162 945.600
449.547 963.000
448.932 948.400
448.318 967.200
447.703 982.000
447.088 939.600
446.472 933.000
445.856 958.800
445.241 981.200
444.626 962.000
444.010 970.000
443.395 964.800
442.780 971.000
442.164 961.000
441.548 943.200
440.932 962.400
440.317 979.000
439.700 970.400
439.085 971.600
438.469 969.400
437.853 984.200
437.237 976.800
436.622 977.400
436.005 980.000
435.389 965.800
434.773 988.800
434.156 971.000
433.541 995.800
432.923 968.400
432.308 990.400
431.690 991.200
431.075 985.800
430.457 1000.000
429.841 984.600
429.225 979.000
428.608 1006.000
427.992 1001.400
427.374 1003.000
426.757 997.800
426.141 995.000
425.523 1001.000
424.907 1008.800
424.289 992.200
423.673 980.000
423.055 1025.600
422.438 988.400
421.821 1005.400
421.203 1023.200
420.587 1020.600
419.969 1022.800
419.351 1020.600
418.734 1053.200
418.116 1013.800
417.498 1030.600
416.882 1039.600
416.263 1020.800
415.645 1028.200
415.027 1032.200
414.410 1034.000
413.792 1048.600
413.174 1027.800
412.555 1009.400
411.938 1045.200
411.320 1027.000
410.702 1042.200
410.083 1055.600
409.466 1039.000
408.847 1018.600
408.229 1026.000
407.610 1063.800
406.991 1027.800
406.373 1027.800
405.754 1052.000
405.136 1058.000
404.518 1055.400
403.899 1054.800
403.280 1093.600
402.661 1070.800
402.042 1046.800
401.423 1059.800
400.804 1073.800
400.185 1068.400
399.566 1083.400
398.947 1056.400
398.328 1076.400
397.708 1063.000
397.089 1096.600
396.470 1077.800
395.850 1083.000
395.231 1078.800
394.612 1073.600
393.992 1129.800
393.373 1092.800
392.753 1099.800
392.134 1080.600
391.514 1088.800
390.893 1087.400
390.273 1104.400
389.654 1122.800
389.034 1119.800
388.414 1108.200
387.794 1134.600
387.174 1165.400
386.553 1128.400
385.933 1163.600
385.313 1173.600
384.693 1183.800
384.072 1194.600
383.452 1227.600
382.832 1208.200
382.212 1256.800
381.590 1287.400
380.970 1276.600
380.350 1308.800
379.729 1341.000
379.108 1375.400
378.487 1398.000
377.867 1402.600
377.245 1438.200
376.625 1477.000
376.004 1483.000
375.382 1538.000
374.762 1565.600
374.141 1596.600
373.519 1647.400
372.898 1706.800
372.276 1752.200
371.655 1781.000
371.033 1827.600
370.412 1865.800
369.791 1890.400
369.169 1870.600
368.548 1898.800
367.926 1878.200
367.305 1897.800
366.682 1893.800
366.061 1942.400
365.439 1951.800
364.818 1989.400
364.195 2018.800
363.573 2067.400
362.951 2112.400
362.329 2130.600
361.707 2114.000
361.084 2151.000
360.462 2150.000
359.840 2120.400
359.217 2101.200
358.596 2089.800
357.973 2052.800
357.350 2060.800
356.728 2069.400
356.105 2096.800
355.482 2095.000
354.860 2111.200
354.237 2158.800
353.614 2172.200
352.991 2195.200
352.369 2205.200
351.745 2241.000
351.122 2291.800
350.499 2363.600
349.876 2399.800
349.253 2438.600
348.629 2486.800
348.006 2575.000
347.382 2652.000
346.760 2775.800
346.136 2899.600
345.513 3079.000
344.889 3303.800
344.265 3592.200
343.641 4033.400
343.018 4571.200
342.395 5230.200
341.771 5951.000
341.147 6395.800
340.523 6669.600
339.899 6651.200
339.275 6276.600
338.651 5756.200
338.027 5337.000
337.403 4888.400
336.778 4581.400
336.154 4293.000
335.530 4126.800
334.905 3949.000
334.281 3832.200
333.657 3728.800
333.032 3580.400
332.408 3517.200
331.783 3459.200
331.159 3404.800
330.534 3324.800
329.909 3349.400
329.285 3309.000
328.659 3356.400
328.034 3342.000
327.409 3371.600
326.784 3419.800
326.159 3396.600
325.535 3455.200
324.910 3501.000
324.283 3539.800
323.658 3662.200
323.033 3797.800
322.408 3903.600
321.783 4024.800
321.157 4257.400
320.531 4432.400
319.906 4627.600
319.281 4956.200
318.654 5126.400
318.029 5396.400
317.403 5675.200
316.777 5886.400
316.151 6038.800
315.526 6190.000
314.899 6282.000
314.273 6243.800
313.648 6165.800
313.021 6044.800
312.395 5796.200
311.769 5569.200
311.142 5329.000
310.516 5062.200
309.889 4728.200
309.263 4442.400
308.637 4206.600
308.010 3946.200
307.384 3670.200
306.757 3490.800
306.131 3307.000
305.503 3159.600
304.877 2991.600
304.249 2829.400
303.623 2710.600
302.996 2626.200
302.369 2518.600
301.742 2415.000
301.115 2350.200
300.487 2288.200
299.861 2212.200
299.233 2171.000
298.605 2134.800
297.979 2081.000
297.351 2052.400
296.724 2052.200
296.096 2025.600
295.468 2048.600
294.841 2070.400
294.213 2076.400
293.585 2088.800
292.958 2142.400
292.330 2232.000
291.702 2248.600
291.075 2300.000
290.446 2377.800
289.818 2366.400
289.189 2364.600
288.562 2287.800
287.934 2193.400
287.305 2101.400
286.677 2026.600
286.049 1915.200
285.421 1854.000
284.792 1759.800
284.163 1738.000
283.534 1670.200
282.907 1638.600
282.278 1608.800
281.649 1589.200
281.020 1559.200
280.391 1506.600
279.762 1522.600
279.133 1490.600
278.505 1493.000
277.876 1479.200
277.247 1478.400
276.618 1465.800
275.989 1483.800
275.359 1455.400
274.730 1456.600
274.101 1439.000
273.471 1449.800
272.842 1403.200
272.212 1412.400
271.583 1400.000
270.953 1384.800
270.324 1398.600
269.694 1388.200
269.065 1377.400
268.435 1363.400
267.805 1381.800
267.175 1349.800
266.545 1365.200
265.916 1362.000
265.284 1358.800
264.655 1348.000
264.025 1350.200
263.395 1315.400
262.764 1348.600
262.134 1358.800
261.504 1370.200
260.873 1358.600
260.243 1363.400
259.612 1370.200
258.982 1357.400
258.352 1338.200
257.720 1381.400
257.090 1350.000
256.459 1349.800
255.829 1344.400
255.197 1370.600
254.566 1363.400
253.936 1347.800
253.305 1325.400
252.673 1319.200
252.042 1321.600
251.412 1313.400
250.780 1301.400
250.149 1299.800
249.518 1325.200
248.886 1295.200
248.255 1317.600
247.624 1263.000
246.992 1276.600
246.360 1265.200
245.728 1248.000
245.097 1267.200
244.466 1241.000
243.833 1247.200
243.202 1217.400
242.569 1229.000
241.938 1213.600
241.305 1187.800
240.674 1194.200
240.041 1208.000
239.410 1214.000
238.777 1178.000
238.145 1210.200
237.512 1196.200
236.881 1166.400
236.248 1186.200
235.616 1182.000
234.983 1162.200
234.351 1176.600
233.718 1166.000
233.085 1137.400
232.453 1156.200
231.820 1163.600
231.186 1125.200
230.554 1143.600
229.921 1133.800
229.289 1152.400
228.655 1114.600
228.022 1130.200
227.390 1126.600
226.756 1118.600
226.123 1125.000
225.489 1121.800
224.856 1097.600
224.223 1111.600
223.589 1120.000
222.955 1121.800
222.323 1104.200
221.689 1105.400
221.055 1086.400
220.421 1091.600
219.788 1093.400
219.154 1095.000
218.520 1082.000
217.886 1084.800
217.252 1048.200
216.618 1056.800
215.985 1048.400
215.350 1048.200
214.716 1046.400
214.082 1045.600
213.447 1015.000
212.813 1028.800
212.178 1017.400
