834.788 131.800
834.204 131.600
833.621 138.600
833.037 137.400
832.453 136.800
831.870 130.800
831.286 135.400
830.702 137.800
830.118 131.200
829.535 132.800
828.950 132.800
828.367 134.200
827.782 136.800
827.198 132.800
826.615 132.000
826.030 139.000
825.446 133.800
824.861 131.500
824.277 126.200
823.692 138.600
823.109 131.200
822.523 138.800
821.940 140.800
821.354 138.400
820.770 138.000
820.185 141.400
819.601 139.200
819.016 131.600
818.431 137.400
817.846 135.200
817.261 132.600
816.677 133.800
816.091 131.400
815.506 138.600
814.922 133.400
814.336 135.800
813.750 137.000
813.166 136.600
812.580 128.000
811.995 137.200
811.410 137.200
810.824 129.800
810.239 133.400
809.653 128.600
809.068 122.600
808.482 128.800
807.896 129.600
807.310 138.600
806.724 138.000
806.139 139.000
805.553 138.200
804.967 137.800
804.381 131.800
803.795 140.400
803.209 123.800
802.624 136.200
802.037 134.000
801.451 127.400
800.865 132.200
800.278 137.200
799.692 133.600
799.105 129.600
798.519 139.400
797.932 136.400
797.346 134.000
796.759 135.400
796.173 140.000
795.586 133.000
794.999 128.000
794.412 134.400
793.826 141.600
793.239 129.000
792.652 133.400
792.065 130.400
791.478 134.400
790.891 131.000
790.303 138.400
789.716 139.200
789.129 136.600
788.542 131.800
787.955 129.800
787.368 129.400
786.781 130.200
786.192 141.400
785.605 140.200
785.018 133.400
784.430 133.800
783.842 135.000
783.254 132.400
782.667 136.000
782.079 128.000
781.491 124.800
780.903 134.800
780.316 133.400
779.727 134.200
779.139 138.800
778.551 136.200
777.963 132.200
777.375 144.800
776.787 141.800
776.198 131.000
775.610 129.000
775.022 137.400
774.433 136.200
773.845 141.000
773.256 147.600
772.668 142.200
772.079 145.600
771.491 134.600
770.901 135.800
770.313 143.000
769.724 139.800
769.136 146.800
768.546 135.800
767.958 136.000
767.368 133.800
766.780 129.000
766.190 138.800
765.602 139.600
765.012 135.000
764.422 138.200
763.834 131.200
763.244 145.400
762.655 140.400
762.066 135.400
761.476 144.600
760.887 138.800
760.297 143.800
759.707 147.200
759.117 141.000
758.528 134.600
757.938 146.200
757.348 145.000
756.759 146.400
756.169 148.400
755.578 148.800
754.988 143.400
754.398 141.600
753.809 145.600
753.218 146.600
752.628 141.000
752.037 145.400
751.447 148.600
750.858 150.000
750.267 149.000
749.676 145.400
749.086 144.200
748.495 148.600
747.904 142.200
747.314 149.400
746.723 151.200
746.132 152.400
745.541 143.000
744.950 138.800
744.360 148.800
743.769 148.600
743.178 145.000
742.587 156.200
741.996 144.400
741.404 148.400
740.813 155.400
740.222 150.800
739.631 147.400
739.040 148.000
738.449 152.200
737.857 150.200
737.266 152.400
736.674 155.200
736.083 156.000
735.490 161.400
734.899 148.000
734.307 156.400
733.716 159.000
733.124 161.400
732.533 156.800
731.940 155.200
731.348 167.000
730.756 163.200
730.165 162.800
729.572 156.000
728.980 167.000
728.388 161.400
727.796 166.200
727.203 169.000
726.611 164.200
726.019 169.800
725.426 166.800
724.834 169.600
724.242 167.800
723.648 168.800
723.056 177.200
722.464 170.200
721.870 179.400
721.278 181.400
720.685 183.200
720.092 183.800
719.500 198.600
718.906 182.200
718.314 186.600
717.720 187.200
717.127 177.800
716.534 182.200
715.941 184.800
715.347 198.000
714.755 186.800
714.161 192.200
713.568 191.000
712.974 199.000
712.380 198.000
711.787 196.800
711.193 191.200
710.600 191.000
710.006 192.200
709.412 197.800
708.819 201.600
708.224 205.800
707.631 207.200
707.037 207.200
706.443 211.000
705.848 206.400
705.255 205.800
704.660 218.200
704.066 242.400
703.472 208.000
702.878 196.600
702.283 214.400
701.689 222.600
701.095 222.400
700.500 212.600
699.906 210.800
699.311 216.000
698.716 211.800
698.122 210.800
697.527 213.800
696.932 221.200
696.337 222.200
695.742 227.200
695.147 222.600
694.552 220.200
693.957 220.800
693.363 221.600
692.768 228.400
692.173 225.600
691.578 222.800
690.982 230.000
690.387 228.200
689.791 237.600
689.196 237.800
688.601 232.800
688.005 235.800
687.410 235.400
686.814 232.200
686.218 244.000
685.623 241.200
685.027 249.200
684.431 227.800
683.835 243.400
683.239 243.000
682.643 247.800
682.047 241.200
681.451 249.000
680.855 254.600
680.259 257.000
679.663 240.200
679.066 259.800
678.470 266.000
677.874 258.800
677.278 260.400
676.682 258.600
676.084 265.000
675.488 264.400
674.892 265.600
674.296 263.800
673.698 265.400
673.102 260.400
672.505 259.400
671.908 271.200
671.311 262.000
670.715 273.400
670.117 273.400
669.520 283.600
668.924 291.800
668.326 288.800
667.729 280.200
667.132 278.600
666.534 286.600
665.937 304.000
665.339 295.400
664.743 299.400
664.146 295.200
663.548 298.400
662.950 314.600
662.352 311.600
661.755 310.800
661.157 307.600
660.560 325.000
659.961 322.800
659.364 333.200
658.766 330.400
658.168 346.000
657.570 326.200
656.971 348.600
656.374 345.000
655.775 343.600
655.178 360.600
654.579 360.800
653.980 365.800
653.383 379.400
652.784 372.200
652.185 391.400
651.588 391.400
650.989 397.400
650.390 390.600
649.792 387.600
649.193 406.600
648.594 411.800
647.996 435.600
647.397 436.000
646.798 447.000
646.199 433.600
645.599 444.600
645.001 463.600
644.402 472.800
643.803 460.600
643.203 478.600
642.604 478.000
642.006 480.000
641.406 493.000
640.806 483.200
640.207 499.200
639.607 517.400
639.008 503.000
638.408 517.600
637.808 513.000
637.210 519.200
636.610 526.200
636.010 540.800
635.410 548.000
634.810 548.000
634.211 550.800
633.611 542.800
633.011 555.600
632.411 584.800
631.810 555.800
631.210 571.400
630.610 582.200
630.010 589.400
629.410 597.000
628.808 596.200
628.208 613.400
627.608 596.800
627.007 622.800
626.407 623.000
625.807 641.200
625.206 674.000
624.606 654.000
624.004 653.400
623.403 676.600
622.803 666.800
622.202 684.600
621.601 682.600
620.999 704.000
620.399 715.200
619.798 719.600
619.197 722.000
618.596 738.600
617.994 736.800
617.393 731.000
616.792 709.400
616.190 751.000
615.589 750.000
614.988 734.000
614.385 762.200
613.784 761.600
613.183 758.600
612.581 748.600
611.979 755.000
611.378 768.200
610.776 756.000
610.174 734.200
609.572 769.200
608.970 768.200
608.369 776.200
607.766 751.800
607.164 767.000
606.561 774.600
605.960 750.200
605.357 727.000
604.755 752.800
604.152 745.200
603.551 736.000
602.948 737.400
602.346 719.200
601.743 729.200
601.139 744.800
600.537 730.800
599.934 741.200
599.332 753.000
598.729 737.800
598.126 751.200
597.524 757.200
596.920 763.000
596.318 747.400
595.715 756.400
595.111 763.800
594.509 758.400
593.905 786.600
593.301 777.200
592.698 789.800
592.095 797.000
591.492 800.200
590.888 804.600
590.285 807.200
589.681 836.800
589.078 831.400
588.474 812.600
587.870 842.200
587.267 838.600
586.663 840.400
586.059 848.200
585.455 865.200
584.851 843.400
584.247 858.600
583.644 867.800
583.039 857.400
582.435 876.600
581.831 861.200
581.227 867.800
580.622 892.400
580.018 888.400
579.413 884.600
578.809 886.600
578.204 910.800
577.600 889.800
576.995 900.000
576.390 876.000
575.786 902.000
575.181 901.600
574.576 926.800
573.972 905.200
573.367 913.400
572.762 896.000
572.157 895.000
571.552 886.600
570.947 879.600
570.342 859.400
569.737 851.800
569.131 853.600
568.526 828.000
567.921 825.000
567.315 817.400
566.710 804.400
566.105 768.400
565.498 778.600
564.893 775.200
564.288 777.000
563.682 723.200
563.077 745.800
562.470 696.000
561.865 685.600
561.259 672.000
560.654 686.200
560.047 661.400
559.441 641.200
558.835 646.200
558.228 633.000
557.623 644.400
557.017 622.200
556.410 601.400
555.804 624.600
555.198 593.600
554.591 588.000
553.985 577.200
553.379 577.000
552.772 561.800
552.165 568.200
551.558 558.800
550.952 559.600
550.344 550.800
549.738 543.400
549.131 546.600
548.524 519.000
547.918 532.400
547.310 528.400
546.704 515.600
546.096 521.800
545.489 509.400
544.882 521.800
544.274 525.000
543.668 513.800
543.060 504.400
542.453 501.600
541.845 497.800
541.237 515.200
540.630 496.800
540.022 505.800
539.415 515.800
538.807 510.200
538.199 512.000
537.592 514.800
536.984 514.200
536.376 496.400
535.768 511.200
535.160 515.800
534.552 522.000
533.943 511.200
533.336 520.400
532.728 522.800
532.119 518.400
531.510 513.400
530.903 535.200
530.294 530.400
529.686 533.000
529.077 532.400
528.468 526.000
527.859 536.400
527.252 522.000
526.643 530.400
526.034 536.600
525.425 537.400
524.816 534.600
524.207 527.800
523.598 528.400
522.989 527.800
522.380 524.400
521.772 522.400
521.163 524.000
520.553 517.000
519.944 505.400
519.335 503.800
518.725 497.000
518.116 490.600
517.507 488.200
516.897 487.400
516.288 496.800
515.678 472.800
515.069 483.800
514.458 464.200
513.848 472.400
513.238 471.200
512.629 465.500
512.019 459.800
511.409 467.800
510.799 446.600
510.189 440.400
509.579 446.600
508.968 438.200
508.358 426.800
507.748 438.400
507.138 444.400
506.528 435.400
505.918 409.000
505.307 420.200
504.696 406.000
504.086 419.400
503.476 420.600
502.864 405.800
502.254 390.600
501.644 411.400
501.032 395.800
500.421 415.800
499.811 389.000
499.200 391.600
498.589 393.800
497.978 391.200
497.367 395.200
496.755 386.200
496.145 374.200
495.533 372.800
494.922 394.200
494.311 388.000
493.699 380.800
493.088 358.400
492.476 381.200
491.865 379.400
491.253 380.600
490.641 368.600
490.029 376.200
489.418 393.600
488.806 391.800
488.194 371.400
487.582 388.400
486.971 380.400
486.358 376.600
485.747 380.800
485.134 377.800
484.523 364.800
483.910 352.000
483.298 372.000
482.686 376.400
482.073 352.200
481.461 349.600
480.848 366.200
480.235 354.600
479.624 346.200
479.011 355.600
478.398 344.400
477.786 344.600
477.173 335.400
476.560 337.400
475.948 339.000
475.334 331.600
474.721 338.000
474.108 333.400
473.496 321.400
472.882 309.400
472.269 315.000
471.655 308.200
471.043 307.600
470.430 303.000
469.816 304.000
469.202 295.600
468.589 291.600
467.975 295.000
467.363 289.200
466.749 296.400
466.135 276.000
465.521 279.000
464.907 280.200
464.293 272.600
463.680 283.400
463.066 283.400
462.452 275.600
461.838 272.400
461.223 275.800
460.609 268.600
459.996 264.000
459.382 258.600
458.768 262.800
458.154 276.200
457.538 258.400
456.924 248.000
456.309 275.800
455.695 270.200
455.080 265.400
454.466 272.200
453.851 257.400
453.237 263.600
452.622 262.400
452.008 259.800
451.393 265.200
450.778 254.600
450.162 262.800
449.547 266.000
448.932 261.400
448.318 268.800
447.703 252.800
447.088 254.600
446.472 260.600
445.856 258.800
445.241 263.000
444.626 256.800
444.010 256.200
443.395 268.800
442.780 253.400
442.164 256.400
441.548 252.000
440.932 255.800
440.317 250.600
439.700 253.000
439.085 260.200
438.469 263.400
437.853 250.800
437.237 246.800
436.622 259.200
436.005 244.400
435.389 260.800
434.773 258.800
434.156 256.400
433.541 261.200
432.923 253.200
432.308 248.600
431.690 258.000
431.075 250.200
430.457 253.800
429.841 239.000
429.225 256.800
428.608 261.200
427.992 249.800
427.374 259.800
426.757 246.200
426.141 252.000
425.523 253.200
424.907 263.400
424.289 247.000
423.673 233.800
423.055 247.400
422.438 253.800
421.821 245.400
421.203 254.200
420.587 259.200
419.969 256.200
419.351 261.800
418.734 258.800
418.116 263.000
417.498 256.400
416.882 263.200
416.263 257.600
415.645 267.600
415.027 255.400
414.410 271.400
413.792 269.800
413.174 269.000
412.555 263.800
411.938 276.200
411.320 268.200
410.702 276.800
410.083 277.400
409.466 277.000
408.847 257.400
408.229 278.200
407.610 280.200
406.991 281.200
406.373 282.200
405.754 281.800
405.136 287.400
404.518 270.000
403.899 288.200
403.280 309.200
402.661 297.000
402.042 297.200
401.423 299.800
400.804 311.200
400.185 298.800
399.566 304.600
398.947 313.800
398.328 309.200
397.708 325.600
397.089 327.000
396.470 323.400
395.850 338.000
395.231 361.600
394.612 351.600
393.992 365.200
393.373 363.800
392.753 371.800
392.134 376.000
391.514 386.800
390.893 386.000
390.273 393.400
389.654 388.200
389.034 402.400
388.414 407.000
387.794 406.200
387.174 410.200
386.553 410.400
385.933 421.000
385.313 403.800
384.693 399.400
384.072 427.800
383.452 435.400
382.832 416.200
382.212 429.200
381.590 435.200
380.970 420.200
380.350 420.400
379.729 417.400
379.108 423.000
378.487 416.400
377.867 456.600
377.245 450.800
376.625 439.600
376.004 453.800
375.382 458.600
374.762 450.000
374.141 471.400
373.519 462.600
372.898 465.400
372.276 478.600
371.655 480.000
371.033 492.200
370.412 512.800
369.791 522.800
369.169 544.800
368.548 567.200
367.926 581.800
367.305 582.200
366.682 615.800
366.061 635.000
365.439 666.200
364.818 731.200
364.195 751.800
363.573 763.200
362.951 831.800
362.329 877.400
361.707 874.800
361.084 950.200
360.462 980.600
359.840 1008.000
359.217 1068.200
358.596 1085.600
357.973 1136.200
357.350 1131.800
356.728 1200.000
356.105 1238.400
355.482 1207.800
354.860 1272.400
354.237 1275.600
353.614 1274.000
352.991 1271.400
352.369 1296.000
351.745 1282.600
351.122 1291.200
350.499 1279.200
349.876 1278.000
349.253 1267.400
348.629 1295.000
348.006 1315.000
347.382 1325.400
346.760 1317.200
346.136 1333.800
345.513 1393.600
344.889 1381.800
344.265 1451.800
343.641 1525.600
343.018 1571.600
342.395 1580.600
341.771 1627.200
341.147 1659.000
340.523 1669.200
339.899 1719.400
339.275 1768.200
338.651 1788.800
338.027 1820.200
337.403 1883.800
336.778 1908.600
336.154 2024.200
335.530 2140.200
334.905 2242.800
334.281 2302.400
333.657 2509.600
333.032 2617.200
332.408 2753.200
331.783 2939.600
331.159 3172.800
330.534 3362.400
329.909 3584.600
329.285 3819.600
328.659 4147.600
328.034 4450.200
327.409 4869.800
326.784 5303.200
326.159 5698.400
325.535 6171.600
324.910 6741.000
324.283 7384.600
323.658 8031.200
323.033 8931.400
322.408 9799.600
321.783 10839.200
321.157 12160.800
320.531 13614.400
319.906 15120.600
319.281 17149.200
318.654 19261.600
318.029 21188.000
317.403 23495.600
316.777 25841.200
316.151 27278.600
315.526 28217.400
314.899 28427.000
314.273 27462.000
313.648 25388.800
313.021 23170.800
312.395 20438.600
311.769 17753.200
311.142 15264.800
310.516 13064.400
309.889 11260.000
309.263 9577.800
308.637 8355.800
308.010 7168.800
307.384 6233.800
306.757 5531.800
306.131 4914.600
305.503 4316.400
304.877 3868.200
304.249 3469.800
303.623 3108.600
302.996 2834.400
302.369 2584.800
301.742 2340.800
301.115 2151.800
300.487 1951.400
299.861 1801.400
299.233 1642.400
298.605 1554.000
297.979 1448.000
297.351 1320.000
296.724 1245.400
296.096 1189.400
295.468 1085.400
294.841 1013.800
294.213 974.200
293.585 935.000
292.958 881.000
292.330 834.800
291.702 782.800
291.075 757.200
290.446 724.200
289.818 706.800
289.189 653.200
288.562 649.800
287.934 623.600
287.305 596.800
286.677 575.000
286.049 538.400
285.421 531.800
284.792 507.200
284.163 505.600
283.534 468.600
282.907 466.200
282.278 474.400
281.649 456.200
281.020 447.800
280.391 436.000
279.762 426.200
279.133 410.200
278.505 415.000
277.876 407.800
277.247 385.000
276.618 402.200
275.989 390.200
275.359 379.800
274.730 375.800
274.101 385.600
273.471 368.600
272.842 372.000
272.212 361.200
271.583 362.600
270.953 351.800
270.324 355.000
269.694 340.800
269.065 346.800
268.435 341.600
267.805 336.000
267.175 330.400
266.545 325.800
265.916 331.200
265.284 335.200
264.655 330.200
264.025 336.000
263.395 325.400
262.764 315.400
262.134 326.800
261.504 318.200
260.873 314.400
260.243 321.600
259.612 328.600
258.982 323.000
258.352 306.600
257.720 314.000
257.090 301.600
256.459 314.800
255.829 313.200
255.197 318.800
254.566 301.800
253.936 299.400
253.305 305.800
252.673 298.400
252.042 295.200
251.412 309.800
250.780 304.200
250.149 304.200
249.518 298.400
248.886 307.400
248.255 299.200
247.624 305.400
246.992 290.000
246.360 304.400
245.728 292.400
245.097 294.800
244.466 290.000
243.833 293.800
243.202 282.400
242.569 289.400
241.938 285.200
241.305 292.600
240.674 291.000
240.041 279.200
239.410 285.600
238.777 276.000
238.145 277.200
237.512 277.000
236.881 281.600
236.248 278.200
235.616 289.400
234.983 273.000
234.351 282.600
233.718 266.000
233.085 265.000
232.453 261.000
231.820 262.400
231.186 268.000
230.554 270.800
229.921 265.800
229.289 282.400
228.655 275.800
228.022 274.200
227.390 274.600
226.756 276.800
226.123 287.200
225.489 280.400
224.856 296.800
224.223 281.000
223.589 284.000
222.955 297.000
222.323 289.200
221.689 291.000
221.055 313.000
220.421 313.000
219.788 322.000
219.154 329.000
218.520 336.200
217.886 361.200
217.252 363.200
216.618 381.400
215.985 401.200
215.350 402.600
214.716 407.800
214.082 409.400
213.447 394.400
212.813 384.000
212.178 368.600
