834.788 284.200
834.204 286.600
833.621 296.000
833.037 283.400
832.453 277.600
831.870 288.000
831.286 284.400
830.702 279.600
830.118 273.800
829.535 287.200
828.950 282.600
828.367 285.600
827.782 279.600
827.198 285.800
826.615 282.000
826.030 288.200
825.446 290.600
824.861 289.600
824.277 287.600
823.692 287.600
823.109 287.400
822.523 290.200
821.940 295.800
821.354 282.600
820.770 289.800
820.185 284.600
819.601 280.800
819.016 283.000
818.431 293.400
817.846 275.000
817.261 302.200
816.677 281.400
816.091 276.600
815.506 291.800
814.922 299.000
814.336 289.000
813.750 288.800
813.166 276.000
812.580 290.600
811.995 283.400
811.410 300.200
810.824 281.200
810.239 289.400
809.653 281.800
809.068 294.600
808.482 293.000
807.896 284.400
807.310 294.600
806.724 293.800
806.139 289.000
805.553 289.000
804.967 289.000
804.381 284.000
803.795 279.400
803.209 286.000
802.624 295.800
802.037 291.400
801.451 279.600
800.865 289.600
800.278 291.200
799.692 288.600
799.105 291.000
798.519 287.400
797.932 293.800
797.346 303.600
796.759 294.600
796.173 288.400
795.586 291.600
794.999 295.000
794.412 287.000
793.826 297.000
793.239 288.800
792.652 296.400
792.065 287.600
791.478 298.200
790.891 283.000
790.303 290.200
789.716 298.000
789.129 294.400
788.542 287.600
787.955 305.000
787.368 289.800
786.781 303.600
786.192 291.000
785.605 300.400
785.018 298.400
784.430 286.800
783.842 287.800
783.254 285.400
782.667 293.800
782.079 292.600
781.491 294.400
780.903 294.000
780.316 282.600
779.727 291.000
779.139 284.600
778.551 296.000
777.963 292.200
777.375 286.000
776.787 302.600
776.198 295.600
775.610 287.800
775.022 293.800
774.433 296.000
773.845 294.000
773.256 291.600
772.668 298.200
772.079 300.400
771.491 295.800
770.901 305.400
770.313 302.000
769.724 289.000
769.136 302.800
768.546 306.200
767.958 294.600
767.368 296.000
766.780 299.800
766.190 308.000
765.602 295.400
765.012 304.600
764.422 303.600
763.834 292.400
763.244 304.800
762.655 301.400
762.066 309.600
761.476 296.400
760.887 301.400
760.297 316.000
759.707 290.200
759.117 298.200
758.528 299.000
757.938 306.000
757.348 300.000
756.759 299.600
756.169 311.000
755.578 308.200
754.988 309.400
754.398 312.800
753.809 307.400
753.218 325.200
752.628 302.000
752.037 307.000
751.447 312.200
750.858 311.000
750.267 307.600
749.676 308.800
749.086 315.200
748.495 315.200
747.904 303.400
747.314 311.200
746.723 298.600
746.132 314.000
745.541 313.800
744.950 314.000
744.360 314.000
743.769 323.400
743.178 307.200
742.587 320.200
741.996 315.000
741.404 308.200
740.813 312.600
740.222 317.200
739.631 304.800
739.040 314.600
738.449 311.400
737.857 313.200
737.266 317.800
736.674 325.200
736.083 319.400
735.490 325.600
734.899 318.400
734.307 317.200
733.716 319.200
733.124 315.400
732.533 310.600
731.940 320.600
731.348 321.400
730.756 323.200
730.165 306.800
729.572 322.600
728.980 310.400
728.388 329.400
727.796 328.000
727.203 324.600
726.611 315.400
726.019 329.800
725.426 315.400
724.834 327.200
724.242 328.600
723.648 326.400
723.056 327.400
722.464 317.800
721.870 327.600
721.278 335.000
720.685 340.400
720.092 339.000
719.500 331.600
718.906 332.200
718.314 337.800
717.720 343.200
717.127 336.800
716.534 346.400
715.941 341.200
715.347 342.400
714.755 336.000
714.161 337.400
713.568 339.600
712.974 344.400
712.380 340.400
711.787 355.600
711.193 343.800
710.600 344.400
710.006 349.800
709.412 355.000
708.819 344.400
708.224 362.600
707.631 368.000
707.037 348.200
706.443 361.800
705.848 356.800
705.255 353.000
704.660 357.400
704.066 391.800
703.472 363.800
702.878 364.600
702.283 358.600
701.689 360.200
701.095 371.600
700.500 362.400
699.906 358.400
699.311 354.400
698.716 366.400
698.122 371.800
697.527 371.600
696.932 376.800
696.337 375.800
695.742 366.400
695.147 369.400
694.552 376.200
693.957 368.000
693.363 376.600
692.768 375.600
692.173 374.000
691.578 384.800
690.982 374.600
690.387 381.200
689.791 376.200
689.196 370.400
688.601 386.400
688.005 383.800
687.410 377.600
686.814 373.400
686.218 388.600
685.623 381.400
685.027 399.800
684.431 390.200
683.835 387.600
683.239 389.000
682.643 396.200
682.047 396.800
681.451 391.800
680.855 402.000
680.259 407.800
679.663 395.200
679.066 389.800
678.470 408.400
677.874 403.600
677.278 401.800
676.682 418.800
676.084 419.000
675.488 398.400
674.892 423.400
674.296 427.400
673.698 422.200
673.102 417.000
672.505 418.400
671.908 421.800
671.311 418.000
670.715 419.800
670.117 406.200
669.520 431.000
668.924 409.000
668.326 415.800
667.729 418.000
667.132 420.400
666.534 420.600
665.937 404.400
665.339 421.600
664.743 412.000
664.146 413.000
663.548 411.800
662.950 410.200
662.352 409.000
661.755 406.000
661.157 411.800
660.560 409.200
659.961 410.000
659.364 418.400
658.766 417.200
658.168 408.400
657.570 414.800
656.971 410.600
656.374 416.200
655.775 415.000
655.178 430.400
654.579 416.000
653.980 426.600
653.383 424.000
652.784 423.800
652.185 427.800
651.588 436.200
650.989 430.600
650.390 432.600
649.792 425.000
649.193 425.600
648.594 439.400
647.996 441.600
647.397 450.200
646.798 439.000
646.199 445.400
645.599 451.600
645.001 452.600
644.402 437.200
643.803 449.600
643.203 437.600
642.604 447.600
642.006 454.400
641.406 452.400
640.806 466.800
640.207 460.200
639.607 463.000
639.008 475.000
638.408 464.400
637.808 472.400
637.210 463.800
636.610 462.000
636.010 467.800
635.410 466.000
634.810 471.400
634.211 461.200
633.611 482.800
633.011 470.800
632.411 471.400
631.810 464.800
631.210 475.800
630.610 478.400
630.010 467.600
629.410 478.600
628.808 493.600
628.208 507.400
627.608 450.800
627.007 501.600
626.407 499.400
625.807 489.000
625.206 495.200
624.606 491.000
624.004 502.400
623.403 514.200
622.803 515.200
622.202 512.600
621.601 507.000
620.999 513.000
620.399 512.400
619.798 515.000
619.197 528.200
618.596 513.000
617.994 526.600
617.393 528.600
616.792 525.400
616.190 522.400
615.589 517.200
614.988 536.600
614.385 523.400
613.784 526.600
613.183 535.000
612.581 538.800
611.979 541.000
611.378 533.600
610.776 535.400
610.174 528.000
609.572 543.200
608.970 540.200
608.369 531.800
607.766 548.000
607.164 556.600
606.561 545.600
605.960 534.000
605.357 548.800
604.755 533.800
604.152 544.200
603.551 548.400
602.948 555.400
602.346 546.200
601.743 543.200
601.139 551.800
600.537 558.600
599.934 568.600
599.332 547.200
598.729 561.000
598.126 555.400
597.524 552.200
596.920 560.200
596.318 554.600
595.715 552.800
595.111 539.800
594.509 545.000
593.905 554.200
593.301 552.000
592.698 548.400
592.095 558.400
591.492 558.200
590.888 536.800
590.285 563.800
589.681 544.200
589.078 568.200
588.474 561.000
587.870 566.400
587.267 543.000
586.663 557.200
586.059 553.000
585.455 571.200
584.851 565.000
584.247 559.600
583.644 559.800
583.039 577.800
582.435 578.400
581.831 573.800
581.227 567.000
580.622 568.400
580.018 580.600
579.413 586.400
578.809 588.000
578.204 570.600
577.600 584.800
576.995 553.400
576.390 563.400
575.786 569.400
575.181 566.000
574.576 583.400
573.972 583.200
573.367 558.200
572.762 576.400
572.157 576.400
571.552 566.400
570.947 586.000
570.342 567.200
569.737 578.000
569.131 578.400
568.526 554.800
567.921 574.200
567.315 556.200
566.710 565.200
566.105 574.200
565.498 559.000
564.893 558.600
564.288 566.800
563.682 550.800
563.077 541.000
562.470 542.400
561.865 552.200
561.259 542.000
560.654 536.400
560.047 531.400
559.441 523.400
558.835 545.000
558.228 525.400
557.623 519.400
557.017 532.400
556.410 521.600
555.804 510.800
555.198 517.400
554.591 501.000
553.985 497.600
553.379 515.400
552.772 514.400
552.165 498.400
551.558 501.400
550.952 498.000
550.344 484.200
549.738 501.600
549.131 480.000
548.524 485.600
547.918 484.800
547.310 484.800
546.704 483.200
546.096 483.000
545.489 489.400
544.882 472.000
544.274 470.400
543.668 474.200
543.060 462.800
542.453 473.800
541.845 485.800
541.237 472.400
540.630 470.600
540.022 471.400
539.415 472.800
538.807 474.400
538.199 466.800
537.592 477.000
536.984 466.800
536.376 472.800
535.768 482.000
535.160 464.400
534.552 474.400
533.943 457.800
533.336 455.600
532.728 467.200
532.119 449.800
531.510 470.400
530.903 458.800
530.294 459.400
529.686 463.800
529.077 457.000
528.468 451.800
527.859 458.200
527.252 456.800
526.643 460.800
526.034 451.600
525.425 459.600
524.816 452.800
524.207 467.200
523.598 454.800
522.989 463.400
522.380 467.800
521.772 456.200
521.163 453.200
520.553 445.400
519.944 453.600
519.335 446.400
518.725 460.400
518.116 461.000
517.507 434.000
516.897 454.600
516.288 448.800
515.678 441.600
515.069 457.400
514.458 456.000
513.848 442.600
513.238 454.200
512.629 456.500
512.019 454.200
511.409 437.200
510.799 441.200
510.189 421.600
509.579 450.400
508.968 439.800
508.358 430.600
507.748 439.400
507.138 439.000
506.528 435.600
505.918 426.000
505.307 429.800
504.696 447.800
504.086 439.600
503.476 438.200
502.864 427.800
502.254 446.400
501.644 429.600
501.032 432.400
500.421 437.400
499.811 411.800
499.200 435.600
498.589 433.000
497.978 435.600
497.367 442.400
496.755 430.400
496.145 441.600
495.533 422.800
494.922 430.800
494.311 432.200
493.699 413.400
493.088 418.400
492.476 421.200
491.865 414.800
491.253 425.000
490.641 432.200
490.029 418.000
489.418 422.200
488.806 428.600
488.194 429.000
487.582 414.600
486.971 429.400
486.358 424.400
485.747 430.600
485.134 408.400
484.523 429.000
483.910 429.600
483.298 430.400
482.686 413.400
482.073 427.800
481.461 425.000
480.848 421.000
480.235 416.800
479.624 421.200
479.011 416.000
478.398 429.600
477.786 431.000
477.173 415.400
476.560 411.400
475.948 434.200
475.334 418.600
474.721 436.600
474.108 433.200
473.496 427.800
472.882 414.600
472.269 412.600
471.655 409.000
471.043 427.800
470.430 413.400
469.816 431.000
469.202 407.600
468.589 418.600
467.975 415.600
467.363 414.000
466.749 415.200
466.135 407.600
465.521 417.200
464.907 401.800
464.293 403.200
463.680 423.400
463.066 405.200
462.452 397.200
461.838 390.800
461.223 401.600
460.609 399.400
459.996 415.800
459.382 396.600
458.768 398.200
458.154 405.200
457.538 410.400
456.924 391.800
456.309 394.400
455.695 399.400
455.080 397.400
454.466 408.600
453.851 401.000
453.237 388.800
452.622 396.200
452.008 389.200
451.393 400.200
450.778 392.000
450.162 387.400
449.547 398.000
448.932 397.800
448.318 397.800
447.703 390.800
447.088 390.200
446.472 398.400
445.856 392.800
445.241 385.800
444.626 394.800
444.010 386.800
443.395 389.400
442.780 389.000
442.164 393.600
441.548 388.800
440.932 382.400
440.317 395.600
439.700 384.200
439.085 393.000
438.469 391.800
437.853 391.400
437.237 391.800
436.622 385.000
436.005 386.800
435.389 391.600
434.773 388.200
434.156 367.200
433.541 386.200
432.923 387.600
432.308 396.200
431.690 386.600
431.075 397.200
430.457 394.000
429.841 405.600
429.225 390.400
428.608 386.600
427.992 378.600
427.374 387.400
426.757 387.800
426.141 396.200
425.523 400.400
424.907 396.400
424.289 397.400
423.673 378.600
423.055 397.600
422.438 382.800
421.821 395.400
421.203 381.800
420.587 397.600
419.969 409.000
419.351 395.200
418.734 396.200
418.116 391.800
417.498 395.400
416.882 394.800
416.263 394.600
415.645 407.400
415.027 408.600
414.410 400.400
413.792 396.000
413.174 411.200
412.555 407.000
411.938 403.600
411.320 404.400
410.702 406.200
410.083 413.000
409.466 406.800
408.847 407.200
408.229 405.600
407.610 404.600
406.991 408.200
406.373 404.400
405.754 402.600
405.136 402.000
404.518 421.600
403.899 411.400
403.280 422.000
402.661 421.600
402.042 410.600
401.423 425.400
400.804 423.800
400.185 427.800
399.566 428.200
398.947 426.000
398.328 418.200
397.708 423.000
397.089 427.400
396.470 441.800
395.850 434.600
395.231 435.400
394.612 438.200
393.992 429.400
393.373 446.600
392.753 450.200
392.134 442.600
391.514 441.800
390.893 434.600
390.273 459.400
389.654 441.200
389.034 447.600
388.414 456.600
387.794 473.200
387.174 466.400
386.553 465.400
385.933 476.800
385.313 469.000
384.693 477.400
384.072 494.400
383.452 491.800
382.832 485.800
382.212 498.800
381.590 492.200
380.970 502.600
380.350 506.000
379.729 529.200
379.108 512.000
378.487 525.600
377.867 551.600
377.245 541.600
376.625 543.800
376.004 564.600
375.382 580.800
374.762 567.800
374.141 584.600
373.519 607.600
372.898 603.400
372.276 595.400
371.655 620.800
371.033 620.200
370.412 619.400
369.791 646.400
369.169 625.800
368.548 646.000
367.926 650.200
367.305 657.600
366.682 642.400
366.061 649.000
365.439 670.800
364.818 668.200
364.195 672.400
363.573 685.800
362.951 687.600
362.329 693.600
361.707 730.000
361.084 731.600
360.462 742.200
359.840 754.800
359.217 783.800
358.596 802.400
357.973 807.400
357.350 830.000
356.728 856.600
356.105 867.600
355.482 871.000
354.860 867.200
354.237 882.200
353.614 905.400
352.991 920.400
352.369 943.600
351.745 940.400
351.122 985.400
350.499 988.600
349.876 987.600
349.253 1014.200
348.629 1056.600
348.006 1067.400
347.382 1103.600
346.760 1128.600
346.136 1148.200
345.513 1219.800
344.889 1302.200
344.265 1374.800
343.641 1481.200
343.018 1632.800
342.395 1731.000
341.771 1807.200
341.147 1859.800
340.523 1863.600
339.899 1840.000
339.275 1768.800
338.651 1751.000
338.027 1674.200
337.403 1635.200
336.778 1616.600
336.154 1579.000
335.530 1601.000
334.905 1611.000
334.281 1617.000
333.657 1620.800
333.032 1680.200
332.408 1625.400
331.783 1680.800
331.159 1716.800
330.534 1727.800
329.909 1798.400
329.285 1855.000
328.659 1881.000
328.034 1959.400
327.409 2019.800
326.784 2116.600
326.159 2212.400
325.535 2313.600
324.910 2420.600
324.283 2546.600
323.658 2756.800
323.033 2888.600
322.408 3064.400
321.783 3238.400
321.157 3439.600
320.531 3689.400
319.906 3870.400
319.281 4140.200
318.654 4395.800
318.029 4622.400
317.403 4882.600
316.777 5101.000
316.151 5311.600
315.526 5449.200
314.899 5562.400
314.273 5625.600
313.648 5716.000
313.021 5637.000
312.395 5485.800
311.769 5409.000
311.142 5214.600
310.516 4907.200
309.889 4695.000
309.263 4427.600
308.637 4119.400
308.010 3842.200
307.384 3513.200
306.757 3249.400
306.131 3007.200
305.503 2779.800
304.877 2578.400
304.249 2390.000
303.623 2204.600
302.996 2074.400
302.369 1897.800
301.742 1811.000
301.115 1708.200
300.487 1576.200
299.861 1487.800
299.233 1441.800
298.605 1362.000
297.979 1267.000
297.351 1246.400
296.724 1196.400
296.096 1154.600
295.468 1091.800
294.841 1087.200
294.213 1074.800
293.585 1065.400
292.958 1049.800
292.330 1010.400
291.702 1029.200
291.075 993.400
290.446 979.400
289.818 973.400
289.189 925.200
288.562 888.000
287.934 867.000
287.305 837.800
286.677 785.200
286.049 781.800
285.421 761.400
284.792 736.600
284.163 712.800
283.534 675.400
282.907 664.600
282.278 646.000
281.649 659.800
281.020 638.000
280.391 604.200
279.762 613.200
279.133 608.200
278.505 613.600
277.876 620.000
277.247 603.000
276.618 595.200
275.989 600.400
275.359 587.800
274.730 574.200
274.101 563.800
273.471 556.400
272.842 561.000
272.212 561.400
271.583 552.200
270.953 545.800
270.324 555.200
269.694 524.200
269.065 552.800
268.435 534.000
267.805 547.400
267.175 521.800
266.545 529.200
265.916 517.000
265.284 525.200
264.655 522.400
264.025 515.600
263.395 510.200
262.764 512.600
262.134 515.000
261.504 520.200
260.873 507.800
260.243 494.400
259.612 496.200
258.982 510.800
258.352 495.200
257.720 498.600
257.090 490.200
256.459 487.400
255.829 495.200
255.197 480.600
254.566 483.000
253.936 496.800
253.305 493.800
252.673 480.000
252.042 491.400
251.412 489.600
250.780 472.600
250.149 487.000
249.518 485.000
248.886 472.400
248.255 476.200
247.624 470.800
246.992 464.800
246.360 460.400
245.728 457.800
245.097 468.600
244.466 471.400
243.833 458.200
243.202 463.200
242.569 446.800
241.938 442.800
241.305 450.000
240.674 450.600
240.041 447.600
239.410 438.000
238.777 430.200
238.145 452.800
237.512 433.200
236.881 452.600
236.248 427.200
235.616 425.400
234.983 426.400
234.351 438.400
233.718 423.000
233.085 440.200
232.453 421.000
231.820 427.600
231.186 432.600
230.554 424.600
229.921 425.600
229.289 410.000
228.655 426.000
228.022 420.400
227.390 426.400
226.756 424.800
226.123 419.800
225.489 422.400
224.856 411.400
224.223 421.800
223.589 421.800
222.955 425.200
222.323 427.400
221.689 421.000
221.055 411.000
220.421 420.600
219.788 427.200
219.154 415.400
218.520 403.200
217.886 420.000
217.252 423.600
216.618 402.200
215.985 408.400
215.350 416.400
214.716 411.200
214.082 423.400
213.447 411.800
212.813 408.400
212.178 410.600
