834.788 232.000
834.204 226.200
833.621 230.200
833.037 240.200
832.453 233.000
831.870 239.200
831.286 242.200
830.702 236.800
830.118 232.600
829.535 235.200
828.950 233.000
828.367 244.200
827.782 246.600
827.198 239.800
826.615 228.800
826.030 247.600
825.446 239.800
824.861 242.800
824.277 242.800
823.692 240.800
823.109 241.000
822.523 245.200
821.940 248.000
821.354 243.600
820.770 236.000
820.185 236.800
819.601 235.200
819.016 237.800
818.431 242.800
817.846 242.000
817.261 232.600
816.677 234.400
816.091 239.200
815.506 234.600
814.922 230.200
814.336 232.600
813.750 234.200
813.166 234.200
812.580 229.400
811.995 228.200
811.410 233.000
810.824 235.600
810.239 239.400
809.653 233.200
809.068 232.600
808.482 228.400
807.896 233.600
807.310 234.200
806.724 227.800
806.139 231.400
805.553 223.400
804.967 225.000
804.381 240.000
803.795 232.600
803.209 238.600
802.624 228.400
802.037 225.600
801.451 226.800
800.865 229.200
800.278 234.400
799.692 232.200
799.105 239.200
798.519 239.400
797.932 249.400
797.346 233.800
796.759 229.000
796.173 231.600
795.586 234.200
794.999 230.200
794.412 245.000
793.826 230.200
793.239 240.600
792.652 228.400
792.065 240.000
791.478 236.800
790.891 233.800
790.303 235.200
789.716 242.400
789.129 232.400
788.542 239.800
787.955 239.400
787.368 235.800
786.781 219.400
786.192 239.200
785.605 248.800
785.018 234.400
784.430 235.000
783.842 234.000
783.254 229.800
782.667 233.400
782.079 232.600
781.491 240.000
780.903 241.600
780.316 240.000
779.727 240.000
779.139 234.200
778.551 235.200
777.963 237.200
777.375 233.800
776.787 247.400
776.198 232.600
775.610 242.200
775.022 233.000
774.433 250.000
773.845 230.400
773.256 236.800
772.668 242.800
772.079 234.200
771.491 240.400
770.901 244.200
770.313 236.200
769.724 238.400
769.136 235.800
768.546 239.400
767.958 245.200
767.368 241.600
766.780 235.800
766.190 234.400
765.602 236.800
765.012 237.600
764.422 244.400
763.834 252.600
763.244 251.800
762.655 241.400
762.066 250.200
761.476 255.000
760.887 242.800
760.297 245.600
759.707 245.800
759.117 247.800
758.528 246.000
757.938 245.400
757.348 238.800
756.759 266.600
756.169 242.400
755.578 247.800
754.988 254.000
754.398 246.000
753.809 239.800
753.218 261.200
752.628 254.000
752.037 243.600
751.447 256.000
750.858 253.600
750.267 251.600
749.676 251.200
749.086 257.400
748.495 246.800
747.904 252.800
747.314 252.800
746.723 251.800
746.132 245.400
745.541 251.200
744.950 251.400
744.360 251.400
743.769 256.600
743.178 255.000
742.587 256.000
741.996 244.000
741.404 248.400
740.813 240.600
740.222 243.400
739.631 256.800
739.040 241.200
738.449 243.000
737.857 249.000
737.266 248.200
736.674 259.600
736.083 255.800
735.490 254.800
734.899 243.200
734.307 236.600
733.716 242.800
733.124 252.800
732.533 246.000
731.940 250.400
731.348 250.000
730.756 252.000
730.165 261.400
729.572 247.400
728.980 254.600
728.388 236.600
727.796 254.600
727.203 260.600
726.611 260.200
726.019 262.600
725.426 257.200
724.834 264.600
724.242 262.400
723.648 253.000
723.056 252.800
722.464 262.000
721.870 269.400
721.278 262.800
720.685 265.200
720.092 267.400
719.500 266.800
718.906 263.600
718.314 274.200
717.720 277.200
717.127 283.200
716.534 276.000
715.941 273.800
715.347 264.000
714.755 272.400
714.161 276.400
713.568 277.400
712.974 284.400
712.380 287.800
711.787 295.000
711.193 291.600
710.600 289.800
710.006 297.200
709.412 298.400
708.819 310.600
708.224 312.000
707.631 294.200
707.037 318.200
706.443 316.600
705.848 320.400
705.255 317.400
704.660 326.000
704.066 354.800
703.472 337.000
702.878 327.200
702.283 332.400
701.689 331.800
701.095 325.400
700.500 328.000
699.906 324.000
699.311 322.200
698.716 339.800
698.122 331.800
697.527 347.400
696.932 331.400
696.337 349.800
695.742 341.000
695.147 340.000
694.552 349.000
693.957 347.400
693.363 341.600
692.768 341.000
692.173 323.000
691.578 337.600
690.982 349.800
690.387 329.800
689.791 356.400
689.196 327.400
688.601 333.400
688.005 339.800
687.410 357.800
686.814 353.200
686.218 348.000
685.623 348.200
685.027 368.400
684.431 370.000
683.835 374.800
683.239 373.400
682.643 364.600
682.047 387.800
681.451 404.600
680.855 394.000
680.259 413.800
679.663 414.800
679.066 422.000
678.470 438.400
677.874 426.200
677.278 444.200
676.682 459.000
676.084 457.200
675.488 469.000
674.892 457.200
674.296 456.800
673.698 448.200
673.102 440.600
672.505 440.400
671.908 418.400
671.311 400.400
670.715 423.000
670.117 397.000
669.520 382.800
668.924 385.800
668.326 358.400
667.729 359.200
667.132 363.400
666.534 349.800
665.937 351.000
665.339 350.400
664.743 330.800
664.146 325.600
663.548 329.600
662.950 331.400
662.352 322.600
661.755 322.200
661.157 338.800
660.560 327.200
659.961 315.400
659.364 326.600
658.766 318.800
658.168 317.000
657.570 320.200
656.971 328.400
656.374 327.200
655.775 320.400
655.178 318.800
654.579 338.000
653.980 333.800
653.383 330.000
652.784 326.400
652.185 326.200
651.588 332.400
650.989 331.400
650.390 330.200
649.792 340.200
649.193 340.200
648.594 367.200
647.996 361.000
647.397 350.800
646.798 356.200
646.199 367.400
645.599 343.600
645.001 352.600
644.402 352.000
643.803 350.200
643.203 358.200
642.604 337.600
642.006 345.200
641.406 355.800
640.806 346.000
640.207 361.600
639.607 343.800
639.008 339.400
638.408 344.200
637.808 352.200
637.210 337.800
636.610 344.400
636.010 354.600
635.410 349.800
634.810 345.000
634.211 356.000
633.611 346.000
633.011 349.400
632.411 344.600
631.810 354.800
631.210 352.400
630.610 335.200
630.010 353.200
629.410 365.400
628.808 357.000
628.208 377.600
627.608 326.600
627.007 361.200
626.407 357.800
625.807 369.200
625.206 363.200
624.606 365.200
624.004 378.200
623.403 368.600
622.803 378.600
622.202 374.000
621.601 362.600
620.999 371.000
620.399 364.400
619.798 370.000
619.197 365.200
618.596 373.800
617.994 372.200
617.393 370.200
616.792 381.400
616.190 364.800
615.589 371.600
614.988 374.400
614.385 361.600
613.784 370.000
613.183 367.800
612.581 384.000
611.979 385.600
611.378 371.200
610.776 366.200
610.174 368.200
609.572 351.600
608.970 380.200
608.369 382.200
607.766 370.800
607.164 366.200
606.561 371.000
605.960 371.000
605.357 385.600
604.755 366.400
604.152 366.200
603.551 370.400
602.948 365.000
602.346 386.400
601.743 365.600
601.139 373.200
600.537 368.200
599.934 372.000
599.332 366.200
598.729 364.200
598.126 362.200
597.524 368.000
596.920 358.200
596.318 364.200
595.715 358.800
595.111 361.800
594.509 351.400
593.905 359.600
593.301 350.200
592.698 352.600
592.095 353.400
591.492 367.800
590.888 356.000
590.285 353.200
589.681 362.200
589.078 353.800
588.474 348.800
587.870 353.800
587.267 360.400
586.663 355.000
586.059 359.000
585.455 358.800
584.851 359.400
584.247 368.800
583.644 359.800
583.039 357.200
582.435 354.600
581.831 371.200
581.227 364.000
580.622 351.400
580.018 363.000
579.413 354.200
578.809 367.400
578.204 368.600
577.600 354.200
576.995 361.200
576.390 350.800
575.786 355.200
575.181 349.600
574.576 352.400
573.972 369.000
573.367 370.800
572.762 369.200
572.157 350.800
571.552 353.600
570.947 354.600
570.342 341.200
569.737 341.600
569.131 333.800
568.526 339.800
567.921 333.000
567.315 339.200
566.710 341.200
566.105 321.400
565.498 345.000
564.893 325.600
564.288 332.000
563.682 318.000
563.077 320.000
562.470 306.800
561.865 311.400
561.259 313.800
560.654 302.400
560.047 309.400
559.441 317.000
558.835 300.600
558.228 310.600
557.623 298.800
557.017 291.600
556.410 300.800
555.804 296.800
555.198 285.200
554.591 296.200
553.985 278.000
553.379 291.400
552.772 291.800
552.165 286.000
551.558 292.600
550.952 292.000
550.344 280.000
549.738 290.800
549.131 281.600
548.524 283.000
547.918 285.400
547.310 281.400
546.704 281.400
546.096 277.600
545.489 278.800
544.882 276.200
544.274 271.000
543.668 280.000
543.060 284.400
542.453 271.000
541.845 273.400
541.237 281.200
540.630 269.200
540.022 279.200
539.415 275.400
538.807 275.200
538.199 274.000
537.592 270.000
536.984 281.000
536.376 279.200
535.768 271.600
535.160 297.600
534.552 280.600
533.943 267.400
533.336 284.800
532.728 276.400
532.119 288.200
531.510 283.000
530.903 279.000
530.294 274.000
529.686 293.800
529.077 274.400
528.468 289.200
527.859 278.800
527.252 275.000
526.643 273.400
526.034 279.000
525.425 272.000
524.816 276.600
524.207 268.000
523.598 295.400
522.989 283.400
522.380 277.800
521.772 275.000
521.163 280.400
520.553 269.800
519.944 273.800
519.335 272.200
518.725 276.400
518.116 277.600
517.507 275.400
516.897 271.400
516.288 273.800
515.678 267.400
515.069 276.600
514.458 273.200
513.848 273.600
513.238 270.600
512.629 275.700
512.019 279.000
511.409 269.400
510.799 261.400
510.189 273.600
509.579 267.600
508.968 265.200
508.358 272.400
507.748 261.800
507.138 260.400
506.528 250.400
505.918 258.400
505.307 254.800
504.696 260.800
504.086 250.200
503.476 257.800
502.864 263.200
502.254 262.400
501.644 255.400
501.032 257.000
500.421 262.600
499.811 249.800
499.200 262.800
498.589 245.400
497.978 259.400
497.367 258.400
496.755 249.000
496.145 268.600
495.533 256.000
494.922 265.200
494.311 261.600
493.699 258.600
493.088 260.200
492.476 261.600
491.865 258.800
491.253 258.400
490.641 264.000
490.029 261.000
489.418 264.600
488.806 256.800
488.194 260.400
487.582 266.200
486.971 252.400
486.358 251.000
485.747 276.000
485.134 256.400
484.523 257.200
483.910 257.400
483.298 252.600
482.686 242.000
482.073 253.200
481.461 242.400
480.848 258.400
480.235 257.400
479.624 252.800
479.011 254.600
478.398 253.600
477.786 254.600
477.173 248.200
476.560 254.600
475.948 252.400
475.334 255.800
474.721 243.000
474.108 251.000
473.496 246.600
472.882 240.600
472.269 238.000
471.655 245.600
471.043 234.200
470.430 240.800
469.816 239.000
469.202 235.000
468.589 236.000
467.975 239.000
467.363 236.000
466.749 229.400
466.135 235.200
465.521 236.200
464.907 234.600
464.293 232.600
463.680 233.800
463.066 220.400
462.452 232.400
461.838 223.600
461.223 228.800
460.609 224.200
459.996 244.400
459.382 244.800
458.768 231.000
458.154 229.400
457.538 227.000
456.924 227.000
456.309 225.200
455.695 240.200
455.080 227.600
454.466 213.400
453.851 233.000
453.237 238.800
452.622 235.200
452.008 239.200
451.393 241.200
450.778 228.800
450.162 231.800
449.547 239.400
448.932 236.600
448.318 227.800
447.703 235.200
447.088 237.400
446.472 234.800
445.856 237.200
445.241 235.200
444.626 237.200
444.010 223.400
443.395 239.600
442.780 234.600
442.164 233.200
441.548 237.600
440.932 253.200
440.317 232.800
439.700 243.400
439.085 233.400
438.469 245.400
437.853 245.200
437.237 243.600
436.622 237.600
436.005 245.200
435.389 246.600
434.773 248.200
434.156 239.800
433.541 257.400
432.923 253.800
432.308 251.200
431.690 250.800
431.075 249.200
430.457 251.600
429.841 248.800
429.225 250.600
428.608 247.000
427.992 250.000
427.374 245.600
426.757 247.800
426.141 258.400
425.523 261.800
424.907 263.000
424.289 251.800
423.673 245.000
423.055 258.000
422.438 254.400
421.821 259.600
421.203 249.400
420.587 257.000
419.969 273.600
419.351 264.600
418.734 261.400
418.116 262.200
417.498 268.400
416.882 270.800
416.263 272.800
415.645 266.000
415.027 268.200
414.410 260.400
413.792 263.000
413.174 268.200
412.555 264.000
411.938 264.400
411.320 275.800
410.702 255.800
410.083 270.400
409.466 266.800
408.847 259.400
408.229 255.800
407.610 263.200
406.991 269.000
406.373 250.800
405.754 265.000
405.136 266.200
404.518 277.800
403.899 253.200
403.280 267.800
402.661 262.800
402.042 268.000
401.423 274.000
400.804 265.000
400.185 276.800
399.566 255.000
398.947 264.600
398.328 264.400
397.708 269.000
397.089 259.200
396.470 271.600
395.850 281.600
395.231 277.200
394.612 270.800
393.992 266.000
393.373 274.800
392.753 270.400
392.134 277.200
391.514 269.400
390.893 273.000
390.273 279.600
389.654 278.200
389.034 275.800
388.414 280.600
387.794 283.000
387.174 290.600
386.553 285.800
385.933 301.000
385.313 314.000
384.693 293.200
384.072 322.200
383.452 317.200
382.832 331.200
382.212 336.800
381.590 330.800
380.970 363.800
380.350 370.400
379.729 377.800
379.108 403.400
378.487 401.000
377.867 403.800
377.245 435.200
376.625 456.000
376.004 455.600
375.382 476.400
374.762 474.200
374.141 496.800
373.519 511.200
372.898 525.600
372.276 533.200
371.655 514.200
371.033 515.200
370.412 512.800
369.791 535.400
369.169 515.800
368.548 526.000
367.926 511.200
367.305 534.800
366.682 529.400
366.061 527.200
365.439 546.200
364.818 539.000
364.195 525.400
363.573 532.200
362.951 553.000
362.329 557.200
361.707 582.800
361.084 595.000
360.462 625.200
359.840 656.000
359.217 671.400
358.596 735.200
357.973 738.600
357.350 763.000
356.728 790.600
356.105 821.800
355.482 820.600
354.860 849.800
354.237 858.400
353.614 850.000
352.991 858.800
352.369 885.000
351.745 917.800
351.122 917.200
350.499 901.400
349.876 933.000
349.253 948.200
348.629 995.600
348.006 1066.800
347.382 1117.800
346.760 1238.800
346.136 1430.400
345.513 1688.200
344.889 2096.400
344.265 2553.800
343.641 3038.400
343.018 3407.400
342.395 3678.000
341.771 3659.800
341.147 3447.000
340.523 3057.600
339.899 2594.600
339.275 2162.400
338.651 1797.600
338.027 1588.000
337.403 1414.400
336.778 1298.400
336.154 1233.800
335.530 1186.000
334.905 1123.600
334.281 1093.600
333.657 1062.400
333.032 1047.600
332.408 1049.200
331.783 1039.600
331.159 1057.800
330.534 1087.800
329.909 1126.000
329.285 1179.600
328.659 1245.600
328.034 1281.200
327.409 1344.200
326.784 1477.400
326.159 1567.200
325.535 1667.000
324.910 1777.200
324.283 1938.400
323.658 2115.000
323.033 2347.400
322.408 2598.800
321.783 2878.400
321.157 3213.600
320.531 3594.600
319.906 4014.400
319.281 4436.600
318.654 4940.600
318.029 5396.400
317.403 5700.800
316.777 5880.400
316.151 5974.600
315.526 5901.400
314.899 5634.000
314.273 5308.400
313.648 4824.400
313.021 4370.200
312.395 3929.000
311.769 3492.400
311.142 3063.400
310.516 2673.400
309.889 2354.800
309.263 2082.800
308.637 1884.400
308.010 1667.800
307.384 1508.600
306.757 1327.200
306.131 1236.000
305.503 1094.000
304.877 1048.200
304.249 953.600
303.623 898.600
302.996 844.000
302.369 787.200
301.742 751.600
301.115 730.800
300.487 683.800
299.861 687.000
299.233 656.200
298.605 666.800
297.979 646.400
297.351 645.400
296.724 672.000
296.096 694.800
295.468 744.800
294.841 810.000
294.213 869.400
293.585 936.800
292.958 1030.200
292.330 1101.200
291.702 1118.800
291.075 1136.600
290.446 1133.600
289.818 1007.000
289.189 949.000
288.562 863.000
287.934 734.400
287.305 662.200
286.677 603.400
286.049 543.400
285.421 500.400
284.792 478.000
284.163 433.400
283.534 437.000
282.907 407.200
282.278 399.000
281.649 396.000
281.020 381.000
280.391 375.000
279.762 402.400
279.133 384.600
278.505 390.800
277.876 386.000
277.247 389.400
276.618 394.800
275.989 393.200
275.359 380.400
274.730 370.600
274.101 355.200
273.471 353.400
272.842 350.000
272.212 335.400
271.583 344.000
270.953 341.000
270.324 344.000
269.694 321.600
269.065 338.600
268.435 337.000
267.805 323.200
267.175 333.800
266.545 331.800
265.916 324.200
265.284 312.600
264.655 325.000
264.025 322.600
263.395 317.400
262.764 339.400
262.134 318.400
261.504 328.000
260.873 329.000
260.243 326.000
259.612 320.800
258.982 330.400
258.352 340.800
257.720 343.800
257.090 334.800
256.459 335.200
255.829 340.200
255.197 340.600
254.566 334.600
253.936 326.800
253.305 327.600
252.673 337.200
252.042 319.600
251.412 303.000
250.780 319.600
250.149 302.600
249.518 297.800
248.886 290.800
248.255 285.000
247.624 284.400
246.992 278.600
246.360 277.200
245.728 281.000
245.097 260.400
244.466 257.600
243.833 261.600
243.202 268.800
242.569 265.800
241.938 263.400
241.305 248.600
240.674 243.200
240.041 249.600
239.410 235.600
238.777 237.000
238.145 240.800
237.512 235.000
236.881 248.600
236.248 237.000
235.616 238.400
234.983 226.800
234.351 229.800
233.718 220.600
233.085 232.400
232.453 222.200
231.820 213.600
231.186 217.200
230.554 216.800
229.921 232.400
229.289 216.000
228.655 228.600
228.022 226.000
227.390 216.600
226.756 227.000
226.123 229.000
225.489 216.200
224.856 212.400
224.223 231.600
223.589 221.200
222.955 224.000
222.323 230.000
221.689 221.800
221.055 233.200
220.421 232.000
219.788 217.400
219.154 226.600
218.520 218.800
217.886 227.400
217.252 230.200
216.618 230.800
215.985 240.400
215.350 223.600
214.716 229.800
214.082 231.600
213.447 230.800
212.813 222.800
212.178 214.400
