834.788 1167.600
834.204 1187.800
833.621 1196.000
833.037 1204.000
832.453 1160.600
831.870 1172.000
831.286 1188.600
830.702 1172.400
830.118 1174.000
829.535 1186.800
828.950 1180.400
828.367 1190.000
827.782 1163.600
827.198 1190.000
826.615 1165.000
826.030 1181.400
825.446 1207.000
824.861 1192.800
824.277 1178.600
823.692 1188.000
823.109 1203.200
822.523 1191.600
821.940 1171.600
821.354 1168.000
820.770 1199.600
820.185 1191.200
819.601 1157.600
819.016 1195.000
818.431 1171.600
817.846 1159.200
817.261 1193.600
816.677 1164.200
816.091 1179.400
815.506 1169.600
814.922 1162.400
814.336 1158.800
813.750 1179.800
813.166 1160.200
812.580 1165.800
811.995 1161.200
811.410 1176.800
810.824 1163.600
810.239 1158.000
809.653 1178.000
809.068 1161.600
808.482 1154.200
807.896 1181.000
807.310 1175.800
806.724 1182.400
806.139 1176.800
805.553 1145.200
804.967 1164.600
804.381 1184.000
803.795 1155.400
803.209 1148.200
802.624 1169.600
802.037 1167.800
801.451 1173.200
800.865 1152.400
800.278 1161.000
799.692 1145.400
799.105 1153.000
798.519 1152.400
797.932 1157.000
797.346 1166.200
796.759 1160.200
796.173 1165.000
795.586 1158.400
794.999 1147.200
794.412 1159.400
793.826 1172.800
793.239 1145.200
792.652 1153.600
792.065 1157.800
791.478 1169.800
790.891 1162.800
790.303 1153.000
789.716 1136.800
789.129 1170.000
788.542 1165.200
787.955 1160.600
787.368 1143.200
786.781 1139.200
786.192 1159.400
785.605 1149.600
785.018 1160.800
784.430 1158.200
783.842 1158.600
783.254 1162.000
782.667 1161.400
782.079 1142.600
781.491 1165.800
780.903 1158.400
780.316 1165.400
779.727 1164.400
779.139 1127.200
778.551 1172.400
777.963 1160.600
777.375 1155.000
776.787 1173.200
776.198 1156.800
775.610 1152.200
775.022 1144.400
774.433 1137.200
773.845 1132.200
773.256 1158.600
772.668 1164.400
772.079 1156.800
771.491 1152.400
770.901 1172.400
770.313 1146.000
769.724 1152.200
769.136 1148.800
768.546 1146.600
767.958 1178.800
767.368 1143.600
766.780 1129.200
766.190 1149.800
765.602 1139.200
765.012 1157.400
764.422 1152.600
763.834 1155.800
763.244 1152.800
762.655 1158.800
762.066 1160.200
761.476 1165.200
760.887 1165.800
760.297 1173.200
759.707 1163.600
759.117 1145.600
758.528 1145.800
757.938 1149.800
757.348 1169.400
756.759 1137.200
756.169 1143.800
755.578 1169.800
754.988 1162.000
754.398 1153.400
753.809 1146.800
753.218 1154.000
752.628 1171.400
752.037 1180.400
751.447 1139.000
750.858 1147.600
750.267 1161.200
749.676 1143.200
749.086 1146.600
748.495 1165.600
747.904 1146.400
747.314 1136.800
746.723 1165.600
746.132 1137.600
745.541 1157.400
744.950 1145.600
744.360 1146.400
743.769 1171.600
743.178 1164.400
742.587 1162.600
741.996 1152.600
741.404 1149.600
740.813 1153.600
740.222 1171.600
739.631 1158.000
739.040 1150.200
738.449 1155.000
737.857 1166.600
737.266 1164.400
736.674 1124.800
736.083 1149.800
735.490 1140.400
734.899 1152.600
734.307 1139.200
733.716 1152.200
733.124 1159.200
732.533 1164.000
731.940 1137.200
731.348 1137.000
730.756 1156.200
730.165 1167.400
729.572 1148.200
728.980 1152.400
728.388 1156.000
727.796 1155.400
727.203 1173.000
726.611 1146.000
726.019 1148.200
725.426 1131.800
724.834 1147.200
724.242 1138.000
723.648 1153.400
723.056 1169.000
722.464 1160.200
721.870 1155.000
721.278 1153.800
720.685 1172.200
720.092 1180.200
719.500 1195.600
718.906 1183.000
718.314 1188.200
717.720 1223.400
717.127 1245.400
716.534 1269.400
715.941 1299.200
715.347 1367.800
714.755 1432.600
714.161 1462.800
713.568 1479.400
712.974 1493.400
712.380 1473.000
711.787 1393.000
711.193 1301.600
710.600 1302.600
710.006 1297.200
709.412 1249.000
708.819 1214.200
708.224 1246.400
707.631 1254.000
707.037 1236.200
706.443 1230.600
705.848 1208.000
705.255 1207.000
704.660 1212.200
704.066 1203.800
703.472 1216.200
702.878 1223.800
702.283 1227.000
701.689 1225.200
701.095 1225.000
700.500 1237.800
699.906 1222.600
699.311 1214.800
698.716 1216.800
698.122 1224.200
697.527 1232.800
696.932 1239.000
696.337 1243.800
695.742 1216.400
695.147 1242.400
694.552 1237.000
693.957 1216.400
693.363 1235.400
692.768 1237.800
692.173 1218.400
691.578 1234.000
690.982 1230.200
690.387 1233.000
689.791 1220.000
689.196 1207.400
688.601 1225.600
688.005 1227.000
687.410 1236.800
686.814 1203.600
686.218 1212.200
685.623 1224.400
685.027 1206.400
684.431 1231.400
683.835 1225.000
683.239 1239.400
682.643 1269.400
682.047 1242.600
681.451 1252.000
680.855 1249.600
680.259 1281.400
679.663 1275.000
679.066 1273.600
678.470 1285.800
677.874 1286.400
677.278 1316.800
676.682 1278.000
676.084 1317.400
675.488 1330.600
674.892 1356.600
674.296 1339.000
673.698 1359.600
673.102 1368.200
672.505 1375.200
671.908 1363.800
671.311 1347.600
670.715 1404.200
670.117 1377.600
669.520 1363.400
668.924 1343.000
668.326 1354.600
667.729 1342.600
667.132 1307.400
666.534 1309.600
665.937 1299.800
665.339 1264.600
664.743 1240.400
664.146 1253.200
663.548 1257.400
662.950 1251.200
662.352 1228.600
661.755 1223.400
661.157 1213.200
660.560 1213.800
659.961 1192.400
659.364 1179.600
658.766 1181.200
658.168 1186.200
657.570 1151.200
656.971 1164.400
656.374 1174.600
655.775 1169.000
655.178 1149.400
654.579 1167.200
653.980 1165.000
653.383 1152.000
652.784 1168.200
652.185 1135.800
651.588 1148.200
650.989 1156.800
650.390 1150.600
649.792 1151.000
649.193 1158.400
648.594 1161.800
647.996 1149.200
647.397 1145.400
646.798 1148.600
646.199 1157.800
645.599 1159.600
645.001 1152.400
644.402 1166.800
643.803 1162.600
643.203 1129.600
642.604 1146.600
642.006 1143.200
641.406 1152.800
640.806 1146.800
640.207 1144.200
639.607 1153.600
639.008 1166.200
638.408 1126.800
637.808 1129.200
637.210 1144.600
636.610 1130.200
636.010 1127.600
635.410 1125.800
634.810 1141.600
634.211 1124.000
633.611 1113.800
633.011 1120.200
632.411 1136.400
631.810 1129.000
631.210 1093.800
630.610 1113.400
630.010 1119.800
629.410 1099.200
628.808 1114.200
628.208 1138.600
627.608 1085.000
627.007 1128.000
626.407 1114.000
625.807 1125.200
625.206 1151.800
624.606 1122.400
624.004 1121.200
623.403 1122.800
622.803 1126.200
622.202 1117.800
621.601 1115.000
620.999 1122.800
620.399 1125.800
619.798 1112.800
619.197 1090.200
618.596 1119.000
617.994 1106.400
617.393 1098.400
616.792 1111.600
616.190 1096.200
615.589 1119.400
614.988 1113.400
614.385 1118.000
613.784 1102.600
613.183 1097.000
612.581 1098.800
611.979 1080.600
611.378 1095.800
610.776 1113.400
610.174 1109.200
609.572 1090.600
608.970 1098.000
608.369 1105.800
607.766 1084.400
607.164 1095.000
606.561 1093.200
605.960 1093.600
605.357 1116.800
604.755 1089.000
604.152 1094.600
603.551 1124.600
602.948 1086.800
602.346 1107.400
601.743 1099.400
601.139 1094.600
600.537 1089.000
599.934 1115.000
599.332 1077.200
598.729 1091.600
598.126 1087.600
597.524 1092.400
596.920 1078.000
596.318 1086.800
595.715 1053.400
595.111 1096.400
594.509 1096.200
593.905 1060.400
593.301 1058.600
592.698 1068.400
592.095 1091.200
591.492 1078.000
590.888 1058.000
590.285 1055.600
589.681 1061.000
589.078 1056.200
588.474 1047.600
587.870 1048.400
587.267 1055.200
586.663 1049.400
586.059 1041.200
585.455 1058.400
584.851 1033.000
584.247 1064.400
583.644 1034.400
583.039 1045.800
582.435 1054.400
581.831 1032.800
581.227 1021.800
580.622 1020.800
580.018 1029.200
579.413 1030.800
578.809 1055.200
578.204 1030.200
577.600 1046.600
576.995 1037.800
576.390 1034.600
575.786 1036.000
575.181 1028.600
574.576 1011.200
573.972 1014.800
573.367 1042.000
572.762 1025.200
572.157 1010.600
571.552 1021.600
570.947 1031.800
570.342 1029.400
569.737 1003.400
569.131 1015.200
568.526 987.400
567.921 1014.600
567.315 1020.400
566.710 1026.800
566.105 1000.000
565.498 988.800
564.893 1002.200
564.288 1013.200
563.682 991.600
563.077 993.000
562.470 984.600
561.865 990.400
561.259 1005.800
560.654 1007.600
560.047 993.400
559.441 1019.000
558.835 997.000
558.228 1011.200
557.623 998.600
557.017 1001.000
556.410 1019.800
555.804 987.400
555.198 1001.400
554.591 1003.800
553.985 987.200
553.379 993.400
552.772 997.200
552.165 1013.800
551.558 994.600
550.952 993.400
550.344 1004.000
549.738 1003.800
549.131 997.200
548.524 993.800
547.918 1011.400
547.310 1000.600
546.704 969.200
546.096 990.800
545.489 994.200
544.882 969.800
544.274 985.200
543.668 1003.200
543.060 1001.000
542.453 965.200
541.845 987.600
541.237 983.000
540.630 991.800
540.022 974.400
539.415 985.800
538.807 972.400
538.199 974.200
537.592 988.000
536.984 991.000
536.376 997.200
535.768 965.200
535.160 963.000
534.552 983.800
533.943 1005.200
533.336 1000.600
532.728 966.600
532.119 974.800
531.510 989.400
530.903 975.200
530.294 965.000
529.686 993.000
529.077 970.800
528.468 962.200
527.859 980.400
527.252 983.000
526.643 985.600
526.034 994.800
525.425 984.200
524.816 979.800
524.207 944.800
523.598 1004.800
522.989 967.400
522.380 985.200
521.772 962.200
521.163 970.400
520.553 979.600
519.944 970.600
519.335 969.600
518.725 994.400
518.116 997.600
517.507 954.600
516.897 963.600
516.288 980.400
515.678 976.400
515.069 955.200
514.458 988.600
513.848 985.000
513.238 976.400
512.629 979.500
512.019 981.000
511.409 988.400
510.799 968.400
510.189 989.400
509.579 998.800
508.968 986.200
508.358 952.600
507.748 985.200
507.138 954.400
506.528 992.000
505.918 966.400
505.307 991.000
504.696 978.400
504.086 984.800
503.476 995.200
502.864 972.400
502.254 990.400
501.644 979.400
501.032 978.200
500.421 977.400
499.811 1007.000
499.200 971.000
498.589 978.000
497.978 993.600
497.367 982.000
496.755 974.000
496.145 996.400
495.533 983.000
494.922 974.200
494.311 978.200
493.699 982.400
493.088 987.200
492.476 990.400
491.865 979.800
491.253 998.000
490.641 989.400
490.029 997.600
489.418 1011.200
488.806 991.000
488.194 1006.000
487.582 996.600
486.971 982.000
486.358 1007.000
485.747 992.200
485.134 1002.800
484.523 1001.800
483.910 981.600
483.298 992.400
482.686 1005.800
482.073 984.400
481.461 997.400
480.848 986.000
480.235 1003.200
479.624 1001.800
479.011 991.800
478.398 996.800
477.786 997.800
477.173 975.600
476.560 998.800
475.948 987.800
475.334 1001.000
474.721 979.000
474.108 988.200
473.496 977.800
472.882 977.600
472.269 987.600
471.655 971.000
471.043 978.600
470.430 963.600
469.816 988.200
469.202 1001.800
468.589 980.400
467.975 966.000
467.363 959.800
466.749 952.800
466.135 968.200
465.521 963.200
464.907 955.400
464.293 961.000
463.680 981.200
463.066 946.800
462.452 956.600
461.838 957.400
461.223 974.400
460.609 986.200
459.996 972.400
459.382 937.200
458.768 941.800
458.154 965.200
457.538 952.600
456.924 965.400
456.309 971.400
455.695 967.400
455.080 944.200
454.466 968.200
453.851 970.000
453.237 943.800
452.622 956.000
452.008 930.000
451.393 954.400
450.778 955.600
450.162 943.600
449.547 958.200
448.932 940.200
448.318 937.000
447.703 955.200
447.088 957.200
446.472 976.000
445.856 958.400
445.241 965.400
444.626 965.600
444.010 962.800
443.395 943.000
442.780 955.000
442.164 958.000
441.548 946.800
440.932 935.200
440.317 959.000
439.700 964.200
439.085 954.200
438.469 982.000
437.853 979.600
437.237 961.600
436.622 951.200
436.005 973.600
435.389 985.600
434.773 972.400
434.156 944.000
433.541 978.200
432.923 987.200
432.308 979.600
431.690 968.800
431.075 956.800
430.457 977.400
429.841 954.800
429.225 1003.600
428.608 1000.600
427.992 973.800
427.374 987.400
426.757 979.000
426.141 992.600
425.523 993.800
424.907 984.800
424.289 983.400
423.673 968.600
423.055 992.200
422.438 988.800
421.821 1000.200
421.203 993.800
420.587 996.200
419.969 995.000
419.351 997.000
418.734 991.000
418.116 984.600
417.498 974.600
416.882 1005.200
416.263 993.600
415.645 983.600
415.027 1004.000
414.410 989.800
413.792 1007.000
413.174 979.800
412.555 980.800
411.938 1001.600
411.320 1009.000
410.702 1010.400
410.083 981.400
409.466 1018.000
408.847 1000.400
408.229 996.800
407.610 1009.400
406.991 1026.000
406.373 1017.000
405.754 994.600
405.136 1027.800
404.518 1010.200
403.899 992.800
403.280 1023.800
402.661 997.000
402.042 985.000
401.423 992.600
400.804 1001.000
400.185 978.800
399.566 996.600
398.947 996.400
398.328 1005.800
397.708 992.000
397.089 997.200
396.470 1008.800
395.850 990.600
395.231 987.400
394.612 1003.800
393.992 1011.600
393.373 962.800
392.753 1005.200
392.134 997.200
391.514 1005.000
390.893 984.800
390.273 1018.400
389.654 994.400
389.034 997.600
388.414 1009.200
387.794 998.600
387.174 1006.400
386.553 1012.400
385.933 1034.600
385.313 1026.800
384.693 1026.000
384.072 1060.800
383.452 1063.200
382.832 1061.000
382.212 1089.000
381.590 1124.000
380.970 1138.000
380.350 1185.000
379.729 1204.400
379.108 1256.000
378.487 1263.200
377.867 1321.600
377.245 1342.400
376.625 1364.000
376.004 1397.800
375.382 1435.600
374.762 1487.200
374.141 1485.000
373.519 1504.200
372.898 1490.000
372.276 1465.400
371.655 1437.800
371.033 1439.600
370.412 1382.000
369.791 1376.800
369.169 1360.400
368.548 1331.600
367.926 1309.600
367.305 1276.000
366.682 1306.600
366.061 1258.600
365.439 1263.600
364.818 1250.200
364.195 1245.600
363.573 1248.800
362.951 1244.600
362.329 1251.200
361.707 1242.400
361.084 1231.400
360.462 1225.800
359.840 1242.600
359.217 1237.200
358.596 1268.800
357.973 1272.800
357.350 1300.800
356.728 1303.200
356.105 1318.000
355.482 1332.600
354.860 1356.600
354.237 1353.400
353.614 1383.600
352.991 1377.000
352.369 1428.600
351.745 1465.600
351.122 1501.000
350.499 1535.800
349.876 1592.200
349.253 1650.600
348.629 1706.600
348.006 1750.600
347.382 1792.000
346.760 1816.200
346.136 1869.000
345.513 1964.600
344.889 2077.600
344.265 2223.600
343.641 2418.000
343.018 2749.600
342.395 3182.800
341.771 3773.600
341.147 4659.600
340.523 5638.800
339.899 6508.800
339.275 7071.000
338.651 6779.400
338.027 5990.600
337.403 5096.000
336.778 4202.400
336.154 3536.200
335.530 2999.200
334.905 2718.600
334.281 2453.600
333.657 2267.800
333.032 2097.800
332.408 1938.600
331.783 1794.800
331.159 1709.200
330.534 1592.000
329.909 1526.000
329.285 1447.800
328.659 1409.400
328.034 1365.200
327.409 1321.600
326.784 1310.200
326.159 1257.600
325.535 1238.600
324.910 1221.000
324.283 1213.200
323.658 1182.400
323.033 1192.600
322.408 1163.400
321.783 1152.600
321.157 1177.600
320.531 1146.800
319.906 1160.600
319.281 1139.400
318.654 1152.000
318.029 1149.400
317.403 1132.800
316.777 1133.400
316.151 1159.600
315.526 1124.000
314.899 1115.600
314.273 1123.800
313.648 1106.000
313.021 1103.200
312.395 1114.800
311.769 1096.000
311.142 1085.600
310.516 1098.200
309.889 1103.600
309.263 1102.600
308.637 1089.600
308.010 1086.200
307.384 1074.000
306.757 1081.200
306.131 1101.400
305.503 1109.000
304.877 1116.000
304.249 1112.800
303.623 1111.000
302.996 1097.200
302.369 1108.400
301.742 1141.000
301.115 1131.000
300.487 1107.000
299.861 1137.400
299.233 1164.600
298.605 1175.200
297.979 1214.200
297.351 1221.200
296.724 1230.600
296.096 1278.400
295.468 1314.200
294.841 1341.600
294.213 1422.000
293.585 1489.600
292.958 1566.000
292.330 1661.000
291.702 1812.200
291.075 1942.400
290.446 2131.800
289.818 2330.600
289.189 2462.800
288.562 2582.400
287.934 2594.800
287.305 2546.600
286.677 2439.600
286.049 2331.400
285.421 2257.600
284.792 2139.200
284.163 2077.800
283.534 2011.200
282.907 1982.600
282.278 1925.200
281.649 1906.200
281.020 1835.000
280.391 1795.800
279.762 1765.200
279.133 1689.600
278.505 1628.000
277.876 1582.600
277.247 1549.000
276.618 1529.600
275.989 1503.000
275.359 1450.800
274.730 1445.000
274.101 1409.800
273.471 1416.600
272.842 1383.800
272.212 1346.600
271.583 1324.400
270.953 1299.200
270.324 1289.000
269.694 1286.000
269.065 1229.000
268.435 1207.000
267.805 1219.400
267.175 1214.400
266.545 1180.400
265.916 1175.800
265.284 1167.000
264.655 1153.600
264.025 1107.600
263.395 1137.000
262.764 1083.000
262.134 1084.600
261.504 1085.800
260.873 1071.200
260.243 1044.200
259.612 1060.000
258.982 1042.200
258.352 1039.200
257.720 1025.400
257.090 1027.800
256.459 1007.600
255.829 1012.600
255.197 1009.400
254.566 998.600
253.936 975.600
253.305 980.400
252.673 976.000
252.042 986.000
251.412 945.000
250.780 955.400
250.149 959.800
249.518 929.800
248.886 910.800
248.255 888.800
247.624 888.600
246.992 883.400
246.360 895.800
245.728 888.000
245.097 893.600
244.466 870.400
243.833 864.000
243.202 853.200
242.569 845.600
241.938 844.000
241.305 852.000
240.674 836.600
240.041 836.200
239.410 840.200
238.777 828.200
238.145 803.400
237.512 827.800
236.881 817.600
236.248 802.800
235.616 805.200
234.983 791.000
234.351 802.600
233.718 790.800
233.085 810.000
232.453 781.200
231.820 799.000
231.186 770.000
230.554 787.400
229.921 781.200
229.289 796.000
228.655 768.400
228.022 767.600
227.390 777.800
226.756 769.600
226.123 765.000
225.489 782.200
224.856 778.200
224.223 763.200
223.589 747.000
222.955 771.400
222.323 772.000
221.689 755.000
221.055 750.600
220.421 751.400
219.788 741.000
219.154 745.400
218.520 748.600
217.886 733.400
217.252 732.400
216.618 736.200
215.985 725.400
215.350 721.000
214.716 738.400
214.082 726.000
213.447 713.000
212.813 719.400
212.178 709.800
