834.788 144.400
834.204 150.000
833.621 144.400
833.037 149.200
832.453 151.600
831.870 149.400
831.286 148.200
830.702 150.800
830.118 154.000
829.535 153.200
828.950 151.600
828.367 143.000
827.782 149.800
827.198 158.200
826.615 156.400
826.030 138.800
825.446 158.200
824.861 156.500
824.277 152.200
823.692 146.200
823.109 147.000
822.523 158.600
821.940 159.400
821.354 156.200
820.770 147.800
820.185 151.800
819.601 155.600
819.016 148.200
818.431 145.600
817.846 149.200
817.261 150.000
816.677 155.800
816.091 148.400
815.506 150.000
814.922 157.200
814.336 154.000
813.750 148.200
813.166 151.000
812.580 152.600
811.995 146.200
811.410 149.800
810.824 150.000
810.239 142.200
809.653 146.200
809.068 150.600
808.482 148.800
807.896 152.600
807.310 154.000
806.724 144.600
806.139 145.600
805.553 150.000
804.967 133.000
804.381 148.600
803.795 155.400
803.209 161.400
802.624 148.600
802.037 145.000
801.451 156.200
800.865 148.800
800.278 142.000
799.692 153.200
799.105 152.200
798.519 149.400
797.932 143.400
797.346 147.000
796.759 151.600
796.173 151.600
795.586 152.800
794.999 145.200
794.412 147.000
793.826 152.000
793.239 157.000
792.652 149.000
792.065 144.400
791.478 147.600
790.891 144.400
790.303 158.400
789.716 151.000
789.129 151.200
788.542 148.800
787.955 144.000
787.368 146.800
786.781 150.600
786.192 150.200
785.605 144.600
785.018 147.600
784.430 147.000
783.842 161.000
783.254 145.000
782.667 153.000
782.079 152.600
781.491 144.400
780.903 154.600
780.316 148.800
779.727 142.400
779.139 144.000
778.551 151.800
777.963 155.600
777.375 140.600
776.787 158.400
776.198 148.400
775.610 156.000
775.022 153.800
774.433 151.600
773.845 153.800
773.256 150.600
772.668 159.200
772.079 143.400
771.491 158.000
770.901 148.000
770.313 162.800
769.724 159.600
769.136 163.600
768.546 158.800
767.958 156.200
767.368 155.200
766.780 157.400
766.190 166.200
765.602 159.600
765.012 159.200
764.422 155.600
763.834 163.200
763.244 165.400
762.655 158.400
762.066 169.400
761.476 163.600
760.887 160.800
760.297 164.800
759.707 168.200
759.117 164.400
758.528 173.200
757.938 165.000
757.348 165.200
756.759 164.400
756.169 170.200
755.578 171.200
754.988 163.800
754.398 166.600
753.809 164.400
753.218 177.200
752.628 170.000
752.037 175.200
751.447 177.800
750.858 175.600
750.267 169.800
749.676 181.800
749.086 177.000
748.495 170.800
747.904 173.200
747.314 172.400
746.723 172.000
746.132 171.000
745.541 177.600
744.950 181.200
744.360 172.800
743.769 163.400
743.178 173.400
742.587 172.400
741.996 167.800
741.404 176.200
740.813 182.000
740.222 173.800
739.631 170.400
739.040 179.000
738.449 177.200
737.857 174.600
737.266 173.600
736.674 175.800
736.083 173.400
735.490 176.400
734.899 170.800
734.307 179.800
733.716 170.000
733.124 178.200
732.533 179.400
731.940 167.400
731.348 171.800
730.756 168.800
730.165 168.400
729.572 171.000
728.980 167.000
728.388 166.000
727.796 164.400
727.203 168.200
726.611 168.800
726.019 165.800
725.426 176.400
724.834 175.200
724.242 164.600
723.648 167.400
723.056 158.600
722.464 174.200
721.870 168.400
721.278 164.200
720.685 173.000
720.092 175.200
719.500 178.400
718.906 182.000
718.314 174.400
717.720 171.000
717.127 180.800
716.534 176.200
715.941 166.200
715.347 175.200
714.755 175.600
714.161 181.400
713.568 178.000
712.974 192.200
712.380 173.000
711.787 181.400
711.193 186.000
710.600 184.600
710.006 191.000
709.412 193.200
708.819 193.800
708.224 196.800
707.631 202.000
707.037 208.200
706.443 204.000
705.848 213.400
705.255 209.800
704.660 226.000
704.066 213.000
703.472 228.800
702.878 221.000
702.283 226.200
701.689 228.200
701.095 249.600
700.500 232.600
699.906 230.000
699.311 229.400
698.716 245.000
698.122 246.600
697.527 233.600
696.932 235.600
696.337 255.400
695.742 251.800
695.147 249.600
694.552 252.000
693.957 244.200
693.363 245.600
692.768 247.200
692.173 250.400
691.578 245.200
690.982 243.600
690.387 247.200
689.791 241.600
689.196 248.000
688.601 252.800
688.005 253.000
687.410 244.200
686.814 242.800
686.218 241.800
685.623 257.600
685.027 260.000
684.431 265.000
683.835 275.800
683.239 276.400
682.643 275.600
682.047 258.600
681.451 287.200
680.855 302.400
680.259 311.600
679.663 309.600
679.066 338.600
678.470 355.600
677.874 366.200
677.278 387.000
676.682 399.800
676.084 412.600
675.488 430.600
674.892 423.800
674.296 444.400
673.698 451.000
673.102 443.000
672.505 449.000
671.908 432.800
671.311 413.600
670.715 422.400
670.117 411.200
669.520 399.800
668.924 387.600
668.326 379.400
667.729 346.200
667.132 328.800
666.534 315.400
665.937 300.400
665.339 281.600
664.743 281.200
664.146 271.000
663.548 259.400
662.950 247.400
662.352 240.000
661.755 240.000
661.157 229.000
660.560 225.600
659.961 221.600
659.364 215.600
658.766 212.400
658.168 221.000
657.570 214.800
656.971 211.200
656.374 207.000
655.775 214.400
655.178 218.000
654.579 214.000
653.980 205.400
653.383 207.200
652.784 210.200
652.185 198.000
651.588 212.400
650.989 197.600
650.390 215.400
649.792 208.200
649.193 220.000
648.594 223.200
647.996 217.800
647.397 228.600
646.798 221.000
646.199 225.800
645.599 227.800
645.001 221.000
644.402 227.400
643.803 220.600
643.203 219.400
642.604 219.800
642.006 225.800
641.406 221.400
640.806 207.800
640.207 219.800
639.607 209.400
639.008 216.200
638.408 208.000
637.808 207.400
637.210 201.400
636.610 191.400
636.010 206.400
635.410 196.800
634.810 197.400
634.211 199.200
633.611 197.200
633.011 199.600
632.411 189.800
631.810 206.600
631.210 209.400
630.610 207.600
630.010 202.800
629.410 214.400
628.808 212.800
628.208 213.800
627.608 188.600
627.007 217.600
626.407 210.000
625.807 227.000
625.206 225.800
624.606 224.600
624.004 232.800
623.403 222.600
622.803 224.600
622.202 223.000
621.601 217.600
620.999 227.400
620.399 219.200
619.798 224.200
619.197 211.200
618.596 208.600
617.994 217.600
617.393 201.200
616.792 215.200
616.190 206.400
615.589 204.200
614.988 204.000
614.385 195.800
613.784 205.800
613.183 208.400
612.581 198.800
611.979 198.400
611.378 201.600
610.776 205.400
610.174 202.200
609.572 198.200
608.970 217.400
608.369 197.600
607.766 205.600
607.164 213.200
606.561 208.000
605.960 214.000
605.357 216.000
604.755 210.800
604.152 212.200
603.551 213.800
602.948 209.000
602.346 224.200
601.743 215.400
601.139 222.400
600.537 212.000
599.934 213.200
599.332 211.400
598.729 219.600
598.126 201.400
597.524 198.000
596.920 201.200
596.318 204.000
595.715 201.400
595.111 199.000
594.509 191.600
593.905 183.600
593.301 192.000
592.698 194.400
592.095 186.400
591.492 185.800
590.888 186.600
590.285 180.800
589.681 176.800
589.078 178.200
588.474 176.200
587.870 181.000
587.267 164.200
586.663 178.800
586.059 164.200
585.455 166.000
584.851 166.200
584.247 173.600
583.644 172.000
583.039 171.000
582.435 168.200
581.831 158.800
581.227 167.000
580.622 177.400
580.018 166.000
579.413 167.800
578.809 169.400
578.204 163.800
577.600 170.800
576.995 160.600
576.390 163.400
575.786 163.200
575.181 164.400
574.576 163.200
573.972 155.200
573.367 162.400
572.762 159.200
572.157 159.200
571.552 160.400
570.947 149.200
570.342 153.400
569.737 155.400
569.131 150.200
568.526 159.600
567.921 152.000
567.315 154.800
566.710 156.400
566.105 152.800
565.498 156.600
564.893 151.400
564.288 157.000
563.682 154.200
563.077 144.000
562.470 149.000
561.865 145.600
561.259 151.200
560.654 148.400
560.047 154.600
559.441 147.800
558.835 153.000
558.228 150.600
557.623 153.400
557.017 147.800
556.410 143.400
555.804 146.600
555.198 140.600
554.591 148.400
553.985 151.200
553.379 146.000
552.772 150.400
552.165 147.200
551.558 160.600
550.952 142.200
550.344 154.000
549.738 141.800
549.131 151.600
548.524 146.400
547.918 148.000
547.310 148.800
546.704 148.600
546.096 150.000
545.489 152.000
544.882 147.000
544.274 145.200
543.668 151.800
543.060 145.000
542.453 147.600
541.845 143.800
541.237 146.200
540.630 143.200
540.022 143.000
539.415 145.600
538.807 140.200
538.199 148.200
537.592 149.400
536.984 142.800
536.376 150.400
535.768 141.400
535.160 148.000
534.552 149.000
533.943 150.400
533.336 144.600
532.728 148.800
532.119 153.200
531.510 152.000
530.903 155.200
530.294 140.800
529.686 144.800
529.077 159.400
528.468 146.800
527.859 144.800
527.252 158.600
526.643 145.000
526.034 150.800
525.425 152.400
524.816 143.600
524.207 143.800
523.598 149.800
522.989 158.000
522.380 143.000
521.772 142.600
521.163 151.000
520.553 154.400
519.944 145.400
519.335 138.600
518.725 141.000
518.116 144.000
517.507 147.000
516.897 146.400
516.288 149.200
515.678 147.400
515.069 143.600
514.458 144.600
513.848 147.000
513.238 156.800
512.629 157.200
512.019 153.800
511.409 146.600
510.799 145.400
510.189 155.600
509.579 138.600
508.968 152.200
508.358 142.600
507.748 152.800
507.138 154.200
506.528 141.400
505.918 158.200
505.307 141.600
504.696 156.000
504.086 157.200
503.476 157.000
502.864 161.000
502.254 155.800
501.644 154.200
501.032 151.400
500.421 148.600
499.811 158.000
499.200 152.400
498.589 155.400
497.978 151.200
497.367 154.400
496.755 148.200
496.145 142.400
495.533 154.600
494.922 147.400
494.311 164.600
493.699 149.000
493.088 163.800
492.476 151.200
491.865 161.600
491.253 157.200
490.641 161.600
490.029 160.400
489.418 160.600
488.806 172.400
488.194 159.200
487.582 164.200
486.971 163.200
486.358 164.400
485.747 170.600
485.134 158.400
484.523 165.000
483.910 162.400
483.298 161.800
482.686 164.600
482.073 163.800
481.461 163.200
480.848 168.200
480.235 165.400
479.624 165.600
479.011 165.800
478.398 157.400
477.786 168.000
477.173 154.200
476.560 162.800
475.948 161.000
475.334 157.200
474.721 158.000
474.108 153.800
473.496 160.200
472.882 153.200
472.269 163.400
471.655 154.200
471.043 153.400
470.430 161.200
469.816 141.000
469.202 151.400
468.589 148.600
467.975 146.800
467.363 155.400
466.749 151.800
466.135 147.000
465.521 153.000
464.907 144.600
464.293 156.800
463.680 159.200
463.066 153.200
462.452 146.400
461.838 149.800
461.223 144.200
460.609 149.000
459.996 144.400
459.382 153.400
458.768 144.400
458.154 150.800
457.538 155.600
456.924 147.800
456.309 150.000
455.695 141.400
455.080 151.800
454.466 154.200
453.851 157.600
453.237 154.400
452.622 151.600
452.008 138.600
451.393 148.000
450.778 148.800
450.162 150.800
449.547 160.800
448.932 154.000
448.318 154.400
447.703 154.000
447.088 149.000
446.472 145.000
445.856 145.800
445.241 150.800
444.626 156.000
444.010 151.200
443.395 154.200
442.780 149.800
442.164 152.600
441.548 154.200
440.932 163.600
440.317 160.600
439.700 152.400
439.085 149.600
438.469 163.800
437.853 160.800
437.237 159.600
436.622 166.200
436.005 164.600
435.389 169.600
434.773 165.400
434.156 164.600
433.541 164.200
432.923 169.600
432.308 175.000
431.690 173.800
431.075 174.800
430.457 175.800
429.841 178.000
429.225 176.400
428.608 182.400
427.992 170.600
427.374 179.200
426.757 185.200
426.141 175.200
425.523 182.200
424.907 186.800
424.289 178.600
423.673 175.400
423.055 186.200
422.438 180.600
421.821 185.600
421.203 188.800
420.587 192.000
419.969 178.000
419.351 191.600
418.734 194.400
418.116 199.000
417.498 193.600
416.882 199.400
416.263 193.200
415.645 192.400
415.027 197.600
414.410 206.000
413.792 207.600
413.174 211.600
412.555 201.400
411.938 195.800
411.320 208.000
410.702 206.200
410.083 204.000
409.466 212.200
408.847 202.200
408.229 208.800
407.610 212.800
406.991 211.000
406.373 211.400
405.754 198.600
405.136 211.400
404.518 205.000
403.899 210.800
403.280 208.200
402.661 201.000
402.042 196.600
401.423 196.200
400.804 204.800
400.185 195.000
399.566 198.600
398.947 189.000
398.328 192.400
397.708 182.000
397.089 180.600
396.470 187.400
395.850 183.200
395.231 183.600
394.612 179.600
393.992 186.000
393.373 176.800
392.753 181.000
392.134 179.000
391.514 174.800
390.893 167.200
390.273 172.800
389.654 174.800
389.034 182.600
388.414 177.400
387.794 181.600
387.174 170.200
386.553 176.600
385.933 179.600
385.313 174.800
384.693 171.600
384.072 174.800
383.452 177.800
382.832 171.800
382.212 185.800
381.590 197.800
380.970 195.800
380.350 189.400
379.729 203.400
379.108 213.200
378.487 207.600
377.867 230.400
377.245 225.000
376.625 254.600
376.004 249.200
375.382 260.800
374.762 287.800
374.141 297.400
373.519 299.400
372.898 317.400
372.276 328.800
371.655 325.600
371.033 332.800
370.412 337.000
369.791 330.600
369.169 336.800
368.548 364.600
367.926 398.600
367.305 439.800
366.682 460.400
366.061 499.800
365.439 538.400
364.818 567.800
364.195 543.600
363.573 503.400
362.951 471.800
362.329 436.800
361.707 407.200
361.084 416.000
360.462 393.800
359.840 399.400
359.217 433.000
358.596 445.200
357.973 497.800
357.350 482.200
356.728 515.600
356.105 529.400
355.482 559.800
354.860 581.200
354.237 597.800
353.614 589.800
352.991 605.400
352.369 620.600
351.745 622.400
351.122 654.000
350.499 668.800
349.876 700.800
349.253 717.400
348.629 764.200
348.006 792.200
347.382 837.800
346.760 907.600
346.136 956.600
345.513 1080.000
344.889 1255.400
344.265 1553.600
343.641 2032.600
343.018 2856.000
342.395 4045.000
341.771 5445.600
341.147 6850.200
340.523 7656.400
339.899 7732.000
339.275 7015.200
338.651 5847.800
338.027 4438.200
337.403 3234.400
336.778 2404.600
336.154 1874.200
335.530 1588.800
334.905 1361.400
334.281 1221.000
333.657 1065.800
333.032 930.400
332.408 807.200
331.783 700.600
331.159 627.200
330.534 545.800
329.909 494.000
329.285 458.600
328.659 417.000
328.034 386.000
327.409 361.200
326.784 357.400
326.159 327.800
325.535 324.000
324.910 315.400
324.283 296.600
323.658 277.400
323.033 283.200
322.408 279.000
321.783 271.000
321.157 274.400
320.531 264.800
319.906 261.200
319.281 262.400
318.654 257.800
318.029 259.600
317.403 256.000
316.777 255.400
316.151 244.800
315.526 254.800
314.899 246.000
314.273 241.600
313.648 243.200
313.021 247.800
312.395 231.200
311.769 238.000
311.142 238.600
310.516 256.400
309.889 246.200
309.263 238.000
308.637 243.000
308.010 254.200
307.384 263.400
306.757 260.400
306.131 269.600
305.503 272.800
304.877 281.600
304.249 286.400
303.623 285.800
302.996 286.000
302.369 286.600
301.742 294.200
301.115 295.400
300.487 292.800
299.861 309.800
299.233 319.200
298.605 321.200
297.979 343.000
297.351 364.000
296.724 382.000
296.096 411.800
295.468 464.600
294.841 516.000
294.213 608.400
293.585 718.000
292.958 823.200
292.330 1024.000
291.702 1239.200
291.075 1451.000
290.446 1653.800
289.818 1796.000
289.189 1821.600
288.562 1763.600
287.934 1644.600
287.305 1429.800
286.677 1186.600
286.049 1019.400
285.421 827.200
284.792 709.600
284.163 604.400
283.534 530.600
282.907 492.400
282.278 434.600
281.649 417.200
281.020 378.600
280.391 369.800
279.762 356.200
279.133 327.200
278.505 325.600
277.876 322.600
277.247 330.200
276.618 315.400
275.989 335.600
275.359 329.200
274.730 325.600
274.101 330.200
273.471 309.800
272.842 313.800
272.212 300.000
271.583 292.800
270.953 289.800
270.324 281.800
269.694 286.000
269.065 291.000
268.435 298.200
267.805 294.400
267.175 311.800
266.545 304.200
265.916 295.800
265.284 287.600
264.655 290.200
264.025 283.600
263.395 266.800
262.764 258.800
262.134 258.400
261.504 247.800
260.873 251.600
260.243 247.800
259.612 241.600
258.982 238.200
258.352 234.600
257.720 245.600
257.090 227.800
256.459 243.200
255.829 248.600
255.197 245.000
254.566 237.000
253.936 238.600
253.305 239.000
252.673 232.800
252.042 223.600
251.412 229.800
250.780 216.600
250.149 207.600
249.518 205.200
248.886 202.600
248.255 195.400
247.624 198.200
246.992 193.800
246.360 189.400
245.728 171.200
245.097 187.400
244.466 173.600
243.833 170.200
243.202 174.200
242.569 174.400
241.938 166.400
241.305 164.400
240.674 170.000
240.041 159.200
239.410 172.800
238.777 165.800
238.145 169.800
237.512 160.000
236.881 168.200
236.248 153.400
235.616 154.400
234.983 154.600
234.351 150.200
233.718 149.600
233.085 157.400
232.453 153.200
231.820 148.000
231.186 146.400
230.554 151.800
229.921 146.000
229.289 146.200
228.655 143.600
228.022 144.800
227.390 146.600
226.756 141.400
226.123 148.400
225.489 144.400
224.856 147.200
224.223 148.200
223.589 142.000
222.955 145.000
222.323 146.200
221.689 143.800
221.055 147.800
220.421 147.000
219.788 144.600
219.154 139.600
218.520 143.800
217.886 135.800
217.252 140.600
216.618 126.600
215.985 139.600
215.350 139.000
214.716 138.800
214.082 130.400
213.447 134.600
212.813 126.400
212.178 117.600
