834.788 153.000
834.204 146.200
833.621 144.800
833.037 146.000
832.453 145.000
831.870 144.800
831.286 141.000
830.702 144.600
830.118 150.600
829.535 162.400
828.950 146.400
828.367 148.800
827.782 145.600
827.198 156.400
826.615 146.800
826.030 151.200
825.446 147.800
824.861 153.800
824.277 155.200
823.692 155.800
823.109 152.400
822.523 151.000
821.940 162.200
821.354 146.600
820.770 153.000
820.185 158.000
819.601 143.800
819.016 152.600
818.431 152.000
817.846 149.200
817.261 152.600
816.677 154.800
816.091 146.800
815.506 161.600
814.922 160.000
814.336 157.000
813.750 151.600
813.166 148.000
812.580 149.000
811.995 139.200
811.410 153.600
810.824 149.400
810.239 157.200
809.653 152.800
809.068 148.600
808.482 147.800
807.896 152.000
807.310 143.400
806.724 151.800
806.139 141.200
805.553 150.800
804.967 151.800
804.381 142.800
803.795 146.000
803.209 148.800
802.624 155.200
802.037 137.400
801.451 143.200
800.865 145.200
800.278 148.600
799.692 148.200
799.105 137.200
798.519 155.000
797.932 139.600
797.346 154.400
796.759 153.400
796.173 146.800
795.586 147.600
794.999 147.000
794.412 143.600
793.826 151.400
793.239 156.600
792.652 143.600
792.065 145.600
791.478 149.800
790.891 148.400
790.303 148.800
789.716 147.400
789.129 143.400
788.542 147.000
787.955 152.200
787.368 150.200
786.781 142.400
786.192 154.600
785.605 145.600
785.018 164.800
784.430 148.000
783.842 147.000
783.254 140.800
782.667 147.600
782.079 157.000
781.491 157.400
780.903 153.800
780.316 151.800
779.727 154.600
779.139 158.000
778.551 143.400
777.963 152.400
777.375 152.800
776.787 155.400
776.198 156.000
775.610 145.200
775.022 156.000
774.433 157.800
773.845 156.000
773.256 155.200
772.668 153.800
772.079 157.600
771.491 163.600
770.901 158.600
770.313 156.200
769.724 153.200
769.136 152.600
768.546 155.600
767.958 156.600
767.368 157.000
766.780 154.800
766.190 161.400
765.602 140.400
765.012 151.200
764.422 161.000
763.834 157.000
763.244 159.600
762.655 155.400
762.066 161.200
761.476 165.400
760.887 161.400
760.297 167.200
759.707 152.600
759.117 163.200
758.528 167.200
757.938 159.200
757.348 169.200
756.759 162.800
756.169 162.600
755.578 157.800
754.988 168.200
754.398 166.200
753.809 170.800
753.218 156.800
752.628 161.600
752.037 160.800
751.447 165.600
750.858 161.000
750.267 169.400
749.676 161.800
749.086 176.400
748.495 160.000
747.904 163.400
747.314 172.800
746.723 167.600
746.132 161.600
745.541 164.400
744.950 162.800
744.360 169.600
743.769 170.600
743.178 166.200
742.587 166.000
741.996 169.800
741.404 171.800
740.813 172.600
740.222 170.600
739.631 168.000
739.040 172.800
738.449 165.000
737.857 165.400
737.266 169.400
736.674 167.200
736.083 159.000
735.490 157.200
734.899 163.000
734.307 173.400
733.716 167.600
733.124 167.200
732.533 164.400
731.940 164.600
731.348 166.200
730.756 172.800
730.165 164.000
729.572 168.000
728.980 156.200
728.388 161.200
727.796 159.400
727.203 165.000
726.611 174.800
726.019 166.200
725.426 162.400
724.834 172.000
724.242 167.800
723.648 176.200
723.056 170.000
722.464 168.600
721.870 165.600
721.278 171.400
720.685 176.200
720.092 160.800
719.500 177.600
718.906 173.600
718.314 171.000
717.720 176.800
717.127 171.800
716.534 185.600
715.941 177.800
715.347 174.000
714.755 184.400
714.161 179.000
713.568 183.200
712.974 185.800
712.380 179.400
711.787 175.600
711.193 182.200
710.600 186.600
710.006 194.400
709.412 192.200
708.819 195.200
708.224 194.000
707.631 203.200
707.037 206.600
706.443 202.400
705.848 209.000
705.255 209.400
704.660 216.800
704.066 218.000
703.472 223.800
702.878 217.800
702.283 230.000
701.689 238.600
701.095 228.600
700.500 222.400
699.906 226.600
699.311 240.400
698.716 228.200
698.122 228.800
697.527 235.000
696.932 240.800
696.337 233.000
695.742 232.600
695.147 237.400
694.552 240.200
693.957 243.800
693.363 232.800
692.768 222.600
692.173 247.600
691.578 234.400
690.982 235.800
690.387 239.400
689.791 243.200
689.196 224.200
688.601 238.400
688.005 235.600
687.410 239.200
686.814 247.000
686.218 250.400
685.623 248.400
685.027 243.600
684.431 247.600
683.835 253.200
683.239 265.800
682.643 248.400
682.047 256.000
681.451 262.800
680.855 271.000
680.259 280.800
679.663 275.400
679.066 289.000
678.470 296.600
677.874 310.200
677.278 305.600
676.682 319.800
676.084 313.000
675.488 342.000
674.892 336.200
674.296 341.800
673.698 340.000
673.102 348.400
672.505 353.400
671.908 348.400
671.311 330.400
670.715 342.600
670.117 315.800
669.520 324.000
668.924 308.600
668.326 307.800
667.729 282.800
667.132 283.400
666.534 278.000
665.937 268.800
665.339 264.400
664.743 255.000
664.146 242.000
663.548 236.000
662.950 239.800
662.352 234.200
661.755 227.000
661.157 231.200
660.560 216.600
659.961 215.000
659.364 213.600
658.766 211.600
658.168 214.400
657.570 214.800
656.971 205.800
656.374 209.600
655.775 198.000
655.178 205.000
654.579 204.600
653.980 199.400
653.383 198.400
652.784 199.200
652.185 205.600
651.588 211.600
650.989 206.800
650.390 206.200
649.792 209.800
649.193 213.600
648.594 207.400
647.996 212.000
647.397 207.600
646.798 213.200
646.199 204.000
645.599 215.000
645.001 217.600
644.402 220.400
643.803 214.000
643.203 221.000
642.604 208.400
642.006 213.600
641.406 206.600
640.806 202.800
640.207 199.600
639.607 208.800
639.008 215.000
638.408 197.000
637.808 197.400
637.210 196.800
636.610 202.000
636.010 193.400
635.410 198.600
634.810 196.000
634.211 192.600
633.611 189.200
633.011 199.200
632.411 190.000
631.810 192.800
631.210 195.800
630.610 181.400
630.010 196.600
629.410 201.400
628.808 193.600
628.208 192.800
627.608 182.400
627.007 203.800
626.407 206.200
625.807 204.400
625.206 204.000
624.606 202.800
624.004 205.800
623.403 200.600
622.803 194.400
622.202 201.600
621.601 204.400
620.999 202.200
620.399 193.600
619.798 200.600
619.197 193.600
618.596 192.600
617.994 204.800
617.393 197.400
616.792 199.200
616.190 192.800
615.589 188.800
614.988 187.400
614.385 192.600
613.784 187.800
613.183 195.800
612.581 182.800
611.979 188.000
611.378 184.200
610.776 185.400
610.174 185.600
609.572 189.000
608.970 200.600
608.369 188.200
607.766 195.200
607.164 191.600
606.561 191.400
605.960 201.000
605.357 195.000
604.755 191.200
604.152 197.000
603.551 190.200
602.948 195.200
602.346 204.800
601.743 196.600
601.139 194.200
600.537 186.000
599.934 196.000
599.332 189.600
598.729 196.000
598.126 192.400
597.524 187.000
596.920 187.000
596.318 184.600
595.715 185.400
595.111 180.000
594.509 179.400
593.905 178.400
593.301 172.400
592.698 178.000
592.095 178.800
591.492 167.800
590.888 173.800
590.285 169.200
589.681 170.800
589.078 165.000
588.474 158.800
587.870 174.400
587.267 169.600
586.663 171.800
586.059 170.000
585.455 160.200
584.851 170.400
584.247 159.000
583.644 156.200
583.039 161.400
582.435 162.400
581.831 168.400
581.227 156.600
580.622 167.400
580.018 158.600
579.413 158.000
578.809 166.600
578.204 162.400
577.600 157.800
576.995 161.000
576.390 154.600
575.786 154.800
575.181 150.000
574.576 152.400
573.972 152.600
573.367 153.400
572.762 158.200
572.157 158.400
571.552 156.200
570.947 162.000
570.342 148.000
569.737 156.200
569.131 151.800
568.526 148.000
567.921 161.400
567.315 149.600
566.710 150.200
566.105 156.000
565.498 156.600
564.893 146.600
564.288 141.400
563.682 154.400
563.077 150.200
562.470 145.200
561.865 145.200
561.259 142.000
560.654 142.800
560.047 148.600
559.441 144.200
558.835 144.000
558.228 145.600
557.623 147.800
557.017 149.000
556.410 144.400
555.804 145.800
555.198 147.600
554.591 156.200
553.985 146.000
553.379 146.400
552.772 145.200
552.165 147.400
551.558 143.400
550.952 149.400
550.344 142.400
549.738 144.200
549.131 142.800
548.524 141.600
547.918 147.600
547.310 146.400
546.704 144.400
546.096 144.800
545.489 150.600
544.882 144.000
544.274 140.800
543.668 144.400
543.060 143.600
542.453 134.600
541.845 146.000
541.237 146.200
540.630 142.600
540.022 149.600
539.415 148.200
538.807 143.400
538.199 133.200
537.592 140.200
536.984 141.800
536.376 145.800
535.768 150.200
535.160 144.600
534.552 143.600
533.943 145.400
533.336 137.200
532.728 140.400
532.119 148.600
531.510 149.600
530.903 156.400
530.294 144.800
529.686 144.600
529.077 143.600
528.468 153.400
527.859 147.600
527.252 147.600
526.643 143.600
526.034 140.000
525.425 143.400
524.816 152.000
524.207 140.400
523.598 147.000
522.989 145.000
522.380 154.000
521.772 141.800
521.163 152.200
520.553 145.600
519.944 142.000
519.335 134.400
518.725 142.000
518.116 149.800
517.507 145.600
516.897 144.600
516.288 149.400
515.678 152.000
515.069 141.400
514.458 144.600
513.848 139.200
513.238 146.000
512.629 144.500
512.019 141.800
511.409 156.000
510.799 145.400
510.189 150.600
509.579 143.200
508.968 150.000
508.358 138.600
507.748 146.000
507.138 147.200
506.528 149.000
505.918 142.000
505.307 138.600
504.696 147.600
504.086 147.800
503.476 144.600
502.864 149.000
502.254 148.400
501.644 149.800
501.032 152.000
500.421 151.600
499.811 149.800
499.200 144.000
498.589 154.600
497.978 149.400
497.367 145.600
496.755 145.400
496.145 141.000
495.533 156.400
494.922 150.600
494.311 163.000
493.699 157.400
493.088 143.600
492.476 143.000
491.865 155.800
491.253 156.000
490.641 163.200
490.029 146.000
489.418 154.000
488.806 153.800
488.194 159.400
487.582 154.400
486.971 155.000
486.358 149.000
485.747 164.800
485.134 158.400
484.523 161.400
483.910 154.600
483.298 159.000
482.686 155.200
482.073 158.400
481.461 152.600
480.848 155.800
480.235 155.000
479.624 155.200
479.011 153.800
478.398 148.800
477.786 149.200
477.173 159.000
476.560 151.200
475.948 155.400
475.334 154.800
474.721 157.200
474.108 139.800
473.496 153.000
472.882 143.800
472.269 155.800
471.655 143.600
471.043 151.800
470.430 154.800
469.816 146.200
469.202 142.800
468.589 138.800
467.975 144.800
467.363 141.800
466.749 141.600
466.135 143.000
465.521 148.000
464.907 146.200
464.293 148.000
463.680 147.200
463.066 149.000
462.452 147.000
461.838 130.800
461.223 142.200
460.609 149.800
459.996 142.800
459.382 142.400
458.768 149.400
458.154 149.800
457.538 154.200
456.924 152.600
456.309 153.400
455.695 140.400
455.080 144.400
454.466 144.800
453.851 145.800
453.237 145.600
452.622 143.000
452.008 141.800
451.393 147.200
450.778 139.600
450.162 148.200
449.547 153.200
448.932 152.800
448.318 144.200
447.703 142.800
447.088 152.200
446.472 148.400
445.856 152.200
445.241 143.400
444.626 158.600
444.010 147.400
443.395 144.400
442.780 150.200
442.164 147.000
441.548 151.600
440.932 155.800
440.317 153.400
439.700 152.800
439.085 163.000
438.469 160.800
437.853 154.000
437.237 162.000
436.622 157.800
436.005 149.600
435.389 178.800
434.773 166.200
434.156 153.000
433.541 161.400
432.923 164.800
432.308 170.200
431.690 169.400
431.075 170.600
430.457 167.200
429.841 158.600
429.225 175.600
428.608 171.600
427.992 165.600
427.374 176.000
426.757 179.200
426.141 175.000
425.523 172.200
424.907 179.200
424.289 168.000
423.673 164.600
423.055 153.600
422.438 161.600
421.821 173.000
421.203 176.400
420.587 174.200
419.969 183.800
419.351 168.000
418.734 183.800
418.116 185.600
417.498 191.400
416.882 181.600
416.263 184.800
415.645 181.800
415.027 171.200
414.410 175.200
413.792 184.200
413.174 180.400
412.555 185.600
411.938 185.600
411.320 191.200
410.702 180.600
410.083 187.400
409.466 187.400
408.847 184.000
408.229 179.400
407.610 189.400
406.991 187.600
406.373 184.600
405.754 194.400
405.136 177.000
404.518 186.000
403.899 198.000
403.280 185.000
402.661 188.400
402.042 187.200
401.423 186.200
400.804 182.600
400.185 181.200
399.566 185.800
398.947 180.400
398.328 191.200
397.708 179.400
397.089 183.000
396.470 180.400
395.850 169.000
395.231 175.200
394.612 179.600
393.992 177.000
393.373 177.800
392.753 177.600
392.134 174.000
391.514 173.400
390.893 168.200
390.273 172.000
389.654 171.600
389.034 168.800
388.414 170.400
387.794 174.800
387.174 176.600
386.553 179.400
385.933 179.600
385.313 168.200
384.693 176.000
384.072 168.000
383.452 181.200
382.832 191.200
382.212 194.200
381.590 193.800
380.970 203.000
380.350 208.800
379.729 217.200
379.108 223.400
378.487 219.000
377.867 247.800
377.245 238.000
376.625 253.400
376.004 258.800
375.382 276.600
374.762 278.400
374.141 290.400
373.519 299.400
372.898 298.400
372.276 301.600
371.655 316.000
371.033 313.800
370.412 336.000
369.791 331.800
369.169 322.400
368.548 323.800
367.926 312.000
367.305 313.400
366.682 329.400
366.061 322.400
365.439 324.800
364.818 321.000
364.195 330.600
363.573 329.800
362.951 324.400
362.329 333.400
361.707 331.400
361.084 343.000
360.462 353.800
359.840 370.600
359.217 402.600
358.596 415.200
357.973 446.400
357.350 473.600
356.728 515.800
356.105 570.000
355.482 633.000
354.860 671.800
354.237 719.400
353.614 747.800
352.991 770.200
352.369 814.200
351.745 837.200
351.122 847.800
350.499 818.800
349.876 826.800
349.253 806.600
348.629 809.200
348.006 837.000
347.382 842.400
346.760 866.800
346.136 906.000
345.513 974.200
344.889 1113.800
344.265 1285.200
343.641 1580.600
343.018 2020.600
342.395 2535.000
341.771 3138.000
341.147 3633.600
340.523 3980.200
339.899 4058.200
339.275 3843.800
338.651 3487.600
338.027 2882.200
337.403 2316.200
336.778 1875.000
336.154 1501.400
335.530 1301.200
334.905 1133.800
334.281 983.000
333.657 903.400
333.032 791.600
332.408 715.400
331.783 616.200
331.159 581.400
330.534 511.600
329.909 467.000
329.285 445.800
328.659 405.400
328.034 376.600
327.409 354.000
326.784 340.800
326.159 336.600
325.535 298.400
324.910 304.200
324.283 291.800
323.658 280.200
323.033 274.000
322.408 273.800
321.783 273.400
321.157 265.600
320.531 273.200
319.906 264.800
319.281 248.200
318.654 255.800
318.029 256.600
317.403 251.400
316.777 248.200
316.151 260.200
315.526 251.200
314.899 258.600
314.273 254.400
313.648 240.800
313.021 250.200
312.395 240.200
311.769 244.000
311.142 236.600
310.516 240.800
309.889 258.400
309.263 247.000
308.637 256.400
308.010 242.800
307.384 253.000
306.757 258.200
306.131 246.400
305.503 253.800
304.877 260.000
304.249 266.400
303.623 265.800
302.996 269.000
302.369 263.200
301.742 271.400
301.115 276.600
300.487 286.200
299.861 272.200
299.233 306.200
298.605 297.600
297.979 328.000
297.351 335.000
296.724 353.400
296.096 367.200
295.468 400.400
294.841 432.000
294.213 486.200
293.585 539.600
292.958 618.600
292.330 712.200
291.702 813.600
291.075 929.000
290.446 1025.000
289.818 1054.200
289.189 1104.400
288.562 1099.000
287.934 1030.800
287.305 933.800
286.677 850.200
286.049 746.800
285.421 659.600
284.792 550.400
284.163 508.000
283.534 450.600
282.907 402.800
282.278 361.600
281.649 353.800
281.020 324.400
280.391 313.800
279.762 315.600
279.133 299.600
278.505 290.400
277.876 278.800
277.247 277.200
276.618 276.400
275.989 281.200
275.359 283.600
274.730 282.400
274.101 280.000
273.471 285.400
272.842 271.600
272.212 260.800
271.583 260.400
270.953 265.200
270.324 258.600
269.694 247.000
269.065 260.600
268.435 247.200
267.805 245.600
267.175 253.600
266.545 243.000
265.916 258.600
265.284 246.200
264.655 256.800
264.025 243.200
263.395 251.000
262.764 240.000
262.134 242.400
261.504 239.800
260.873 237.600
260.243 247.200
259.612 232.600
258.982 250.400
258.352 244.000
257.720 250.800
257.090 249.000
256.459 262.800
255.829 266.000
255.197 268.000
254.566 258.200
253.936 266.200
253.305 253.000
252.673 252.400
252.042 257.400
251.412 261.200
250.780 259.400
250.149 241.600
249.518 227.200
248.886 230.400
248.255 213.600
247.624 211.400
246.992 213.200
246.360 200.400
245.728 200.600
245.097 198.600
244.466 190.000
243.833 185.600
243.202 192.000
242.569 184.200
241.938 173.800
241.305 179.000
240.674 173.200
240.041 175.200
239.410 174.600
238.777 168.400
238.145 164.200
237.512 168.200
236.881 177.600
236.248 162.800
235.616 158.800
234.983 162.800
234.351 156.600
233.718 161.800
233.085 149.400
232.453 157.400
231.820 153.200
231.186 161.000
230.554 154.200
229.921 143.400
229.289 147.400
228.655 146.000
228.022 143.000
227.390 149.200
226.756 144.000
226.123 151.600
225.489 148.200
224.856 145.800
224.223 139.400
223.589 145.800
222.955 144.000
222.323 139.600
221.689 140.200
221.055 140.000
220.421 143.600
219.788 136.800
219.154 139.000
218.520 130.200
217.886 142.800
217.252 132.800
216.618 143.000
215.985 127.600
215.350 134.000
214.716 132.600
214.082 136.600
213.447 127.000
212.813 128.400
212.178 124.200
