834.788 160.400
834.204 159.200
833.621 164.400
833.037 164.000
832.453 168.400
831.870 161.400
831.286 161.600
830.702 168.000
830.118 173.400
829.535 156.600
828.950 163.400
828.367 174.800
827.782 170.200
827.198 167.800
826.615 163.000
826.030 171.800
825.446 169.600
824.861 172.400
824.277 172.200
823.692 163.400
823.109 166.000
822.523 167.400
821.940 173.000
821.354 168.600
820.770 156.600
820.185 156.600
819.601 160.600
819.016 169.400
818.431 164.000
817.846 162.200
817.261 162.000
816.677 170.800
816.091 167.400
815.506 159.600
814.922 169.800
814.336 157.400
813.750 172.200
813.166 171.000
812.580 155.200
811.995 159.200
811.410 165.000
810.824 166.800
810.239 173.200
809.653 165.200
809.068 156.800
808.482 171.400
807.896 162.400
807.310 172.000
806.724 166.200
806.139 167.000
805.553 165.000
804.967 158.400
804.381 169.800
803.795 162.000
803.209 166.000
802.624 163.600
802.037 160.800
801.451 163.400
800.865 160.200
800.278 165.000
799.692 168.800
799.105 161.200
798.519 167.600
797.932 165.600
797.346 171.400
796.759 169.000
796.173 171.600
795.586 173.200
794.999 159.400
794.412 163.600
793.826 167.200
793.239 170.600
792.652 167.000
792.065 167.400
791.478 165.200
790.891 175.600
790.303 160.200
789.716 168.200
789.129 167.200
788.542 168.600
787.955 162.400
787.368 163.000
786.781 160.600
786.192 172.200
785.605 168.000
785.018 175.600
784.430 170.600
783.842 176.000
783.254 172.400
782.667 172.400
782.079 171.000
781.491 173.000
780.903 168.200
780.316 165.800
779.727 172.800
779.139 167.200
778.551 179.800
777.963 171.200
777.375 171.200
776.787 182.200
776.198 166.600
775.610 173.000
775.022 171.000
774.433 182.600
773.845 166.200
773.256 175.200
772.668 172.400
772.079 183.200
771.491 175.600
770.901 174.600
770.313 172.200
769.724 178.800
769.136 182.000
768.546 184.600
767.958 174.000
767.368 175.800
766.780 169.600
766.190 181.400
765.602 179.400
765.012 176.600
764.422 181.200
763.834 173.400
763.244 176.200
762.655 184.600
762.066 186.600
761.476 184.200
760.887 171.800
760.297 184.200
759.707 179.200
759.117 184.800
758.528 186.000
757.938 185.200
757.348 182.400
756.759 181.600
756.169 188.800
755.578 178.000
754.988 187.800
754.398 181.400
753.809 178.000
753.218 187.400
752.628 189.800
752.037 196.000
751.447 182.400
750.858 193.800
750.267 188.800
749.676 191.400
749.086 180.800
748.495 197.800
747.904 192.000
747.314 187.600
746.723 194.000
746.132 189.200
745.541 193.000
744.950 191.400
744.360 198.000
743.769 186.000
743.178 187.000
742.587 188.400
741.996 195.000
741.404 189.600
740.813 195.400
740.222 192.200
739.631 189.200
739.040 184.200
738.449 193.600
737.857 194.000
737.266 195.800
736.674 192.800
736.083 195.000
735.490 203.200
734.899 191.400
734.307 185.600
733.716 192.000
733.124 188.400
732.533 196.400
731.940 190.400
731.348 187.400
730.756 194.000
730.165 187.800
729.572 195.600
728.980 191.800
728.388 202.000
727.796 193.600
727.203 193.400
726.611 193.600
726.019 190.000
725.426 197.200
724.834 185.600
724.242 186.800
723.648 198.200
723.056 196.400
722.464 197.000
721.870 201.400
721.278 191.400
720.685 191.800
720.092 198.800
719.500 194.400
718.906 198.600
718.314 197.600
717.720 199.600
717.127 205.000
716.534 199.400
715.941 209.800
715.347 205.400
714.755 201.400
714.161 220.400
713.568 207.400
712.974 210.600
712.380 210.200
711.787 214.200
711.193 213.200
710.600 223.200
710.006 224.000
709.412 224.800
708.819 224.800
708.224 230.800
707.631 239.400
707.037 233.200
706.443 241.200
705.848 239.400
705.255 241.200
704.660 249.200
704.066 234.000
703.472 237.600
702.878 250.600
702.283 248.800
701.689 249.400
701.095 238.200
700.500 257.400
699.906 257.800
699.311 261.200
698.716 257.000
698.122 252.000
697.527 251.400
696.932 257.600
696.337 250.200
695.742 264.200
695.147 263.400
694.552 252.000
693.957 266.000
693.363 261.000
692.768 264.600
692.173 250.800
691.578 266.000
690.982 259.600
690.387 271.000
689.791 270.400
689.196 269.800
688.601 271.400
688.005 278.400
687.410 277.800
686.814 292.600
686.218 289.400
685.623 280.400
685.027 293.200
684.431 295.000
683.835 306.000
683.239 307.600
682.643 320.200
682.047 316.200
681.451 331.600
680.855 334.600
680.259 341.200
679.663 354.800
679.066 359.000
678.470 355.600
677.874 362.800
677.278 378.800
676.682 365.200
676.084 375.800
675.488 380.400
674.892 380.800
674.296 384.600
673.698 386.200
673.102 370.400
672.505 354.200
671.908 357.800
671.311 354.000
670.715 361.000
670.117 344.200
669.520 339.600
668.924 334.400
668.326 310.800
667.729 321.400
667.132 303.000
666.534 309.600
665.937 290.600
665.339 294.400
664.743 287.400
664.146 284.200
663.548 266.400
662.950 281.400
662.352 277.400
661.755 266.600
661.157 262.600
660.560 256.800
659.961 250.800
659.364 251.000
658.766 253.800
658.168 257.800
657.570 253.600
656.971 251.600
656.374 251.000
655.775 250.600
655.178 253.400
654.579 250.600
653.980 244.600
653.383 252.600
652.784 257.800
652.185 259.400
651.588 244.200
650.989 244.600
650.390 250.000
649.792 253.800
649.193 240.000
648.594 270.400
647.996 251.000
647.397 262.400
646.798 247.600
646.199 245.800
645.599 252.800
645.001 251.600
644.402 240.000
643.803 241.400
643.203 247.200
642.604 254.200
642.006 240.600
641.406 250.200
640.806 243.600
640.207 241.400
639.607 241.600
639.008 231.600
638.408 231.000
637.808 246.000
637.210 238.000
636.610 245.200
636.010 237.800
635.410 231.400
634.810 246.600
634.211 241.800
633.611 235.000
633.011 238.200
632.411 235.200
631.810 239.200
631.210 240.200
630.610 229.600
630.010 238.600
629.410 243.400
628.808 238.000
628.208 245.400
627.608 214.400
627.007 241.200
626.407 233.800
625.807 249.400
625.206 252.400
624.606 238.000
624.004 237.200
623.403 247.800
622.803 240.400
622.202 237.000
621.601 243.200
620.999 230.400
620.399 241.200
619.798 236.600
619.197 225.000
618.596 227.800
617.994 229.600
617.393 234.600
616.792 238.000
616.190 235.200
615.589 235.000
614.988 222.400
614.385 223.200
613.784 224.000
613.183 225.200
612.581 233.400
611.979 220.600
611.378 225.000
610.776 228.400
610.174 234.600
609.572 230.800
608.970 225.800
608.369 225.400
607.766 231.600
607.164 235.000
606.561 235.200
605.960 229.400
605.357 235.800
604.755 227.800
604.152 234.000
603.551 224.800
602.948 225.400
602.346 235.400
601.743 226.000
601.139 236.000
600.537 228.400
599.934 223.400
599.332 221.000
598.729 220.000
598.126 228.800
597.524 212.000
596.920 217.800
596.318 214.800
595.715 231.400
595.111 219.800
594.509 213.200
593.905 211.200
593.301 218.000
592.698 211.400
592.095 219.800
591.492 210.000
590.888 209.200
590.285 213.800
589.681 209.800
589.078 204.200
588.474 213.800
587.870 200.000
587.267 210.200
586.663 201.200
586.059 214.400
585.455 205.000
584.851 202.400
584.247 207.800
583.644 205.000
583.039 203.000
582.435 205.000
581.831 196.200
581.227 192.800
580.622 202.800
580.018 205.400
579.413 192.400
578.809 206.200
578.204 197.800
577.600 194.600
576.995 197.800
576.390 193.200
575.786 191.200
575.181 195.400
574.576 202.800
573.972 194.000
573.367 189.200
572.762 191.600
572.157 195.800
571.552 189.000
570.947 194.800
570.342 193.200
569.737 184.400
569.131 186.600
568.526 191.200
567.921 188.800
567.315 188.800
566.710 191.400
566.105 192.800
565.498 193.000
564.893 187.400
564.288 184.200
563.682 189.200
563.077 179.400
562.470 182.800
561.865 184.000
561.259 185.600
560.654 191.800
560.047 182.000
559.441 186.800
558.835 178.400
558.228 185.200
557.623 188.400
557.017 186.400
556.410 179.400
555.804 177.800
555.198 171.000
554.591 179.600
553.985 193.400
553.379 188.400
552.772 179.000
552.165 185.200
551.558 174.000
550.952 184.400
550.344 192.400
549.738 182.600
549.131 187.800
548.524 188.000
547.918 188.800
547.310 174.600
546.704 178.200
546.096 177.200
545.489 186.600
544.882 183.200
544.274 179.600
543.668 182.800
543.060 192.600
542.453 178.400
541.845 187.200
541.237 180.200
540.630 185.200
540.022 186.600
539.415 184.400
538.807 181.400
538.199 184.000
537.592 185.800
536.984 190.000
536.376 185.000
535.768 171.600
535.160 181.400
534.552 181.600
533.943 188.400
533.336 181.200
532.728 187.600
532.119 184.400
531.510 183.000
530.903 191.200
530.294 189.000
529.686 183.800
529.077 189.600
528.468 186.600
527.859 192.800
527.252 179.400
526.643 175.600
526.034 174.200
525.425 197.800
524.816 189.600
524.207 186.600
523.598 182.600
522.989 177.000
522.380 180.000
521.772 182.200
521.163 174.000
520.553 177.000
519.944 183.200
519.335 183.600
518.725 184.600
518.116 185.200
517.507 175.400
516.897 183.800
516.288 190.200
515.678 194.600
515.069 185.800
514.458 178.800
513.848 181.600
513.238 182.600
512.629 189.900
512.019 192.000
511.409 186.400
510.799 190.800
510.189 188.600
509.579 188.800
508.968 190.600
508.358 182.400
507.748 186.200
507.138 192.200
506.528 195.200
505.918 198.200
505.307 192.600
504.696 185.800
504.086 190.200
503.476 191.600
502.864 190.000
502.254 188.800
501.644 198.000
501.032 199.000
500.421 187.800
499.811 198.600
499.200 191.800
498.589 197.600
497.978 204.600
497.367 199.400
496.755 192.000
496.145 197.200
495.533 205.400
494.922 190.200
494.311 201.200
493.699 199.000
493.088 199.200
492.476 187.600
491.865 199.600
491.253 203.800
490.641 203.400
490.029 204.800
489.418 203.200
488.806 210.000
488.194 214.400
487.582 195.600
486.971 199.400
486.358 206.800
485.747 206.000
485.134 201.200
484.523 218.000
483.910 199.400
483.298 212.600
482.686 211.400
482.073 211.400
481.461 214.200
480.848 204.600
480.235 203.200
479.624 211.400
479.011 212.200
478.398 206.200
477.786 200.600
477.173 210.600
476.560 204.600
475.948 203.400
475.334 201.000
474.721 196.600
474.108 198.200
473.496 207.400
472.882 209.200
472.269 203.200
471.655 203.600
471.043 209.600
470.430 211.000
469.816 199.200
469.202 205.400
468.589 208.600
467.975 200.800
467.363 213.600
466.749 207.000
466.135 205.000
465.521 202.000
464.907 204.400
464.293 202.400
463.680 192.600
463.066 208.200
462.452 202.400
461.838 208.800
461.223 210.600
460.609 194.800
459.996 211.800
459.382 207.200
458.768 213.200
458.154 216.400
457.538 207.200
456.924 210.600
456.309 211.200
455.695 215.400
455.080 208.200
454.466 208.800
453.851 210.800
453.237 210.600
452.622 211.000
452.008 208.200
451.393 204.200
450.778 214.600
450.162 220.800
449.547 211.600
448.932 202.600
448.318 215.000
447.703 209.600
447.088 208.200
446.472 216.000
445.856 218.600
445.241 222.600
444.626 212.000
444.010 223.000
443.395 221.000
442.780 222.800
442.164 212.200
441.548 227.400
440.932 210.200
440.317 213.200
439.700 223.200
439.085 217.000
438.469 236.800
437.853 233.800
437.237 234.200
436.622 235.800
436.005 227.400
435.389 227.600
434.773 236.200
434.156 223.400
433.541 231.600
432.923 233.400
432.308 242.600
431.690 235.400
431.075 241.200
430.457 237.600
429.841 248.600
429.225 243.800
428.608 249.800
427.992 229.200
427.374 248.600
426.757 241.800
426.141 238.400
425.523 233.000
424.907 237.600
424.289 254.400
423.673 234.400
423.055 243.400
422.438 248.800
421.821 250.800
421.203 260.400
420.587 256.200
419.969 257.800
419.351 254.800
418.734 258.000
418.116 261.000
417.498 259.400
416.882 273.400
416.263 256.000
415.645 261.600
415.027 257.000
414.410 268.600
413.792 260.200
413.174 270.600
412.555 272.400
411.938 269.200
411.320 272.200
410.702 265.600
410.083 256.400
409.466 258.800
408.847 259.200
408.229 263.800
407.610 273.400
406.991 271.600
406.373 257.000
405.754 263.200
405.136 275.600
404.518 276.600
403.899 267.600
403.280 260.200
402.661 270.800
402.042 263.000
401.423 269.600
400.804 259.000
400.185 267.000
399.566 272.800
398.947 258.200
398.328 257.400
397.708 259.200
397.089 254.000
396.470 261.800
395.850 262.200
395.231 258.400
394.612 247.600
393.992 253.400
393.373 253.800
392.753 256.200
392.134 256.000
391.514 265.800
390.893 253.400
390.273 257.000
389.654 249.200
389.034 260.600
388.414 258.400
387.794 255.400
387.174 247.800
386.553 259.600
385.933 269.800
385.313 263.400
384.693 280.400
384.072 268.400
383.452 278.800
382.832 295.200
382.212 292.600
381.590 293.800
380.970 296.800
380.350 324.600
379.729 324.800
379.108 333.200
378.487 344.200
377.867 348.600
377.245 347.000
376.625 361.600
376.004 369.800
375.382 372.000
374.762 385.200
374.141 396.000
373.519 409.200
372.898 420.400
372.276 439.400
371.655 442.400
371.033 459.800
370.412 495.000
369.791 501.200
369.169 544.200
368.548 578.000
367.926 582.800
367.305 584.800
366.682 595.600
366.061 596.600
365.439 590.200
364.818 576.600
364.195 579.400
363.573 565.200
362.951 554.200
362.329 556.800
361.707 565.800
361.084 562.800
360.462 587.000
359.840 602.000
359.217 610.600
358.596 635.800
357.973 629.400
357.350 648.400
356.728 677.800
356.105 692.000
355.482 684.200
354.860 688.800
354.237 722.200
353.614 737.000
352.991 766.800
352.369 811.000
351.745 823.800
351.122 884.600
350.499 928.600
349.876 973.000
349.253 997.400
348.629 1039.400
348.006 1127.200
347.382 1218.400
346.760 1344.400
346.136 1475.200
345.513 1722.400
344.889 2005.000
344.265 2377.400
343.641 2885.800
343.018 3460.400
342.395 4092.200
341.771 4621.400
341.147 4925.800
340.523 4852.400
339.899 4570.200
339.275 3999.200
338.651 3391.200
338.027 2853.200
337.403 2397.800
336.778 2064.600
336.154 1827.800
335.530 1599.000
334.905 1436.800
334.281 1315.600
333.657 1173.400
333.032 1062.800
332.408 935.200
331.783 869.400
331.159 798.400
330.534 728.400
329.909 701.000
329.285 666.400
328.659 597.400
328.034 601.200
327.409 552.000
326.784 532.800
326.159 532.600
325.535 512.000
324.910 488.200
324.283 472.600
323.658 474.200
323.033 465.200
322.408 455.400
321.783 463.400
321.157 445.200
320.531 443.200
319.906 427.800
319.281 436.000
318.654 448.400
318.029 442.600
317.403 442.600
316.777 418.200
316.151 423.400
315.526 430.800
314.899 419.200
314.273 435.400
313.648 440.800
313.021 423.000
312.395 416.200
311.769 427.800
311.142 432.800
310.516 426.400
309.889 420.600
309.263 420.400
308.637 426.800
308.010 435.800
307.384 444.000
306.757 433.200
306.131 430.400
305.503 444.000
304.877 457.800
304.249 449.600
303.623 456.200
302.996 446.400
302.369 458.200
301.742 473.200
301.115 465.200
300.487 488.600
299.861 497.800
299.233 491.400
298.605 513.000
297.979 545.400
297.351 571.400
296.724 607.400
296.096 648.400
295.468 690.200
294.841 756.600
294.213 817.400
293.585 893.000
292.958 982.200
292.330 1035.000
291.702 1119.000
291.075 1182.600
290.446 1212.800
289.818 1193.400
289.189 1133.000
288.562 1078.200
287.934 986.400
287.305 896.800
286.677 825.400
286.049 748.200
285.421 682.000
284.792 631.600
284.163 601.200
283.534 553.000
282.907 519.200
282.278 498.800
281.649 491.000
281.020 466.400
280.391 447.200
279.762 449.000
279.133 427.600
278.505 430.400
277.876 411.600
277.247 414.800
276.618 420.400
275.989 395.200
275.359 413.000
274.730 397.800
274.101 401.800
273.471 390.400
272.842 397.200
272.212 392.200
271.583 385.600
270.953 383.000
270.324 399.200
269.694 391.200
269.065 386.200
268.435 387.000
267.805 389.000
267.175 384.800
266.545 387.200
265.916 388.000
265.284 377.800
264.655 369.400
264.025 364.800
263.395 378.400
262.764 349.600
262.134 352.800
261.504 357.600
260.873 351.000
260.243 350.600
259.612 354.000
258.982 345.200
258.352 343.200
257.720 342.400
257.090 331.600
256.459 333.400
255.829 339.600
255.197 320.800
254.566 311.200
253.936 329.000
253.305 310.800
252.673 315.200
252.042 305.000
251.412 304.600
250.780 303.000
250.149 292.400
249.518 306.000
248.886 291.000
248.255 284.400
247.624 291.600
246.992 281.400
246.360 281.200
245.728 265.000
245.097 276.400
244.466 261.400
243.833 275.800
243.202 274.400
242.569 258.600
241.938 266.600
241.305 254.200
240.674 255.600
240.041 250.000
239.410 255.200
238.777 252.200
238.145 247.400
237.512 245.800
236.881 254.800
236.248 236.800
235.616 245.800
234.983 233.800
234.351 235.000
233.718 242.200
233.085 228.400
232.453 236.800
231.820 245.800
231.186 226.400
230.554 225.400
229.921 223.600
229.289 222.800
228.655 226.800
228.022 231.400
227.390 225.600
226.756 231.600
226.123 223.600
225.489 231.200
224.856 216.000
224.223 226.600
223.589 211.800
222.955 224.800
222.323 220.000
221.689 225.400
221.055 226.400
220.421 223.200
219.788 215.000
219.154 210.200
218.520 221.400
217.886 215.600
217.252 212.200
216.618 203.400
215.985 206.000
215.350 216.800
214.716 212.000
214.082 205.200
213.447 205.400
212.813 206.000
212.178 197.600
