834.788 123.200
834.204 128.800
833.621 132.800
833.037 132.600
832.453 126.400
831.870 125.600
831.286 125.200
830.702 125.600
830.118 128.000
829.535 133.200
828.950 131.800
828.367 127.400
827.782 121.400
827.198 125.600
826.615 130.600
826.030 131.000
825.446 137.000
824.861 138.700
824.277 137.800
823.692 123.600
823.109 120.800
822.523 122.200
821.940 131.400
821.354 125.400
820.770 132.000
820.185 133.800
819.601 131.600
819.016 139.400
818.431 133.000
817.846 121.200
817.261 139.400
816.677 129.800
816.091 129.600
815.506 115.600
814.922 130.200
814.336 129.200
813.750 133.400
813.166 134.200
812.580 131.200
811.995 132.200
811.410 139.200
810.824 126.200
810.239 128.200
809.653 127.200
809.068 128.600
808.482 127.000
807.896 132.800
807.310 124.200
806.724 133.600
806.139 127.600
805.553 130.400
804.967 126.800
804.381 125.200
803.795 129.200
803.209 134.200
802.624 124.400
802.037 123.200
801.451 126.400
800.865 124.600
800.278 128.400
799.692 128.000
799.105 130.600
798.519 132.200
797.932 137.400
797.346 118.200
796.759 128.400
796.173 131.600
795.586 133.200
794.999 123.600
794.412 131.600
793.826 131.600
793.239 131.400
792.652 129.200
792.065 135.000
791.478 137.800
790.891 127.200
790.303 129.800
789.716 129.800
789.129 133.400
788.542 131.200
787.955 130.600
787.368 134.800
786.781 132.400
786.192 129.400
785.605 131.000
785.018 132.200
784.430 132.200
783.842 135.600
783.254 133.600
782.667 128.200
782.079 129.400
781.491 133.600
780.903 134.600
780.316 134.000
779.727 129.000
779.139 140.800
778.551 131.600
777.963 128.800
777.375 132.400
776.787 132.600
776.198 125.000
775.610 132.200
775.022 129.200
774.433 130.600
773.845 129.600
773.256 134.600
772.668 130.400
772.079 140.400
771.491 131.000
770.901 133.000
770.313 137.800
769.724 129.000
769.136 136.400
768.546 137.400
767.958 130.600
767.368 132.600
766.780 135.000
766.190 124.200
765.602 128.200
765.012 134.200
764.422 137.200
763.834 134.600
763.244 143.200
762.655 141.400
762.066 143.200
761.476 137.400
760.887 135.400
760.297 133.000
759.707 129.000
759.117 144.800
758.528 135.800
757.938 144.600
757.348 138.400
756.759 141.400
756.169 135.800
755.578 135.800
754.988 143.200
754.398 140.200
753.809 148.400
753.218 141.600
752.628 146.200
752.037 151.200
751.447 141.600
750.858 149.000
750.267 143.800
749.676 147.800
749.086 142.400
748.495 145.800
747.904 147.600
747.314 147.000
746.723 150.000
746.132 142.200
745.541 147.000
744.950 152.600
744.360 138.000
743.769 144.800
743.178 147.000
742.587 148.400
741.996 146.600
741.404 143.400
740.813 144.000
740.222 147.800
739.631 154.400
739.040 150.000
738.449 150.000
737.857 145.200
737.266 142.200
736.674 150.600
736.083 146.600
735.490 147.000
734.899 153.800
734.307 141.200
733.716 148.400
733.124 143.800
732.533 145.000
731.940 154.000
731.348 146.600
730.756 152.000
730.165 150.600
729.572 151.600
728.980 141.000
728.388 143.800
727.796 155.800
727.203 145.600
726.611 148.800
726.019 144.600
725.426 142.600
724.834 148.200
724.242 144.200
723.648 140.000
723.056 143.600
722.464 144.600
721.870 157.400
721.278 143.000
720.685 145.000
720.092 141.800
719.500 155.200
718.906 148.600
718.314 141.200
717.720 145.400
717.127 151.600
716.534 148.600
715.941 152.200
715.347 146.200
714.755 144.400
714.161 149.000
713.568 151.600
712.974 145.800
712.380 146.200
711.787 160.200
711.193 162.800
710.600 155.800
710.006 162.000
709.412 159.400
708.819 163.000
708.224 158.600
707.631 165.400
707.037 171.200
706.443 179.600
705.848 170.800
705.255 177.000
704.660 178.600
704.066 169.200
703.472 176.000
702.878 186.400
702.283 188.000
701.689 173.200
701.095 187.600
700.500 186.800
699.906 178.400
699.311 193.200
698.716 175.400
698.122 177.600
697.527 189.600
696.932 193.800
696.337 197.600
695.742 201.600
695.147 193.400
694.552 191.800
693.957 198.800
693.363 190.400
692.768 195.600
692.173 198.600
691.578 202.000
690.982 185.000
690.387 199.800
689.791 196.200
689.196 194.800
688.601 202.600
688.005 201.400
687.410 199.800
686.814 206.600
686.218 203.800
685.623 212.400
685.027 216.200
684.431 208.200
683.835 217.400
683.239 216.200
682.643 228.600
682.047 222.600
681.451 221.200
680.855 237.600
680.259 243.400
679.663 232.600
679.066 246.400
678.470 251.600
677.874 261.600
677.278 269.200
676.682 287.600
676.084 285.000
675.488 284.200
674.892 310.600
674.296 305.000
673.698 301.000
673.102 332.200
672.505 310.800
671.908 320.400
671.311 316.000
670.715 316.400
670.117 315.200
669.520 299.800
668.924 300.600
668.326 289.400
667.729 286.400
667.132 270.400
666.534 265.600
665.937 256.800
665.339 247.800
664.743 230.600
664.146 231.400
663.548 224.400
662.950 209.400
662.352 222.600
661.755 205.600
661.157 201.800
660.560 199.600
659.961 200.400
659.364 192.800
658.766 193.600
658.168 186.800
657.570 190.600
656.971 184.400
656.374 190.400
655.775 187.800
655.178 182.400
654.579 177.400
653.980 182.800
653.383 187.400
652.784 179.800
652.185 184.800
651.588 171.000
650.989 180.200
650.390 180.000
649.792 179.800
649.193 181.400
648.594 185.800
647.996 187.400
647.397 176.800
646.798 178.200
646.199 181.200
645.599 186.200
645.001 192.800
644.402 182.200
643.803 185.600
643.203 184.400
642.604 191.800
642.006 187.400
641.406 179.800
640.806 181.000
640.207 187.600
639.607 179.400
639.008 179.200
638.408 173.400
637.808 173.400
637.210 187.400
636.610 170.000
636.010 171.600
635.410 182.800
634.810 182.600
634.211 174.800
633.611 171.600
633.011 170.200
632.411 173.400
631.810 175.200
631.210 166.400
630.610 162.600
630.010 172.000
629.410 176.400
628.808 174.000
628.208 174.800
627.608 165.200
627.007 182.600
626.407 173.200
625.807 178.200
625.206 178.800
624.606 187.600
624.004 187.800
623.403 179.000
622.803 173.400
622.202 176.800
621.601 176.600
620.999 173.200
620.399 173.600
619.798 178.400
619.197 178.400
618.596 172.800
617.994 186.000
617.393 184.000
616.792 181.400
616.190 173.000
615.589 171.800
614.988 173.000
614.385 167.800
613.784 178.800
613.183 170.000
612.581 170.800
611.979 173.200
611.378 164.000
610.776 169.000
610.174 167.200
609.572 170.600
608.970 165.200
608.369 165.800
607.766 170.400
607.164 176.200
606.561 168.200
605.960 163.200
605.357 178.000
604.755 177.000
604.152 173.200
603.551 165.600
602.948 169.400
602.346 169.400
601.743 169.800
601.139 170.400
600.537 183.200
599.934 163.400
599.332 164.200
598.729 170.400
598.126 170.200
597.524 168.600
596.920 166.400
596.318 167.800
595.715 166.400
595.111 158.400
594.509 165.200
593.905 174.600
593.301 160.200
592.698 156.600
592.095 170.800
591.492 168.200
590.888 159.400
590.285 159.200
589.681 154.200
589.078 158.400
588.474 154.400
587.870 146.400
587.267 147.400
586.663 153.000
586.059 146.200
585.455 139.600
584.851 145.400
584.247 146.200
583.644 155.600
583.039 144.000
582.435 146.000
581.831 149.600
581.227 139.200
580.622 148.800
580.018 150.200
579.413 144.200
578.809 143.200
578.204 139.400
577.600 141.200
576.995 139.800
576.390 143.400
575.786 141.400
575.181 142.000
574.576 151.000
573.972 128.400
573.367 137.600
572.762 140.600
572.157 137.400
571.552 146.000
570.947 140.200
570.342 140.600
569.737 125.000
569.131 139.000
568.526 138.200
567.921 139.400
567.315 141.400
566.710 141.800
566.105 131.400
565.498 144.600
564.893 134.200
564.288 135.400
563.682 138.400
563.077 137.000
562.470 132.600
561.865 126.800
561.259 134.800
560.654 140.200
560.047 137.800
559.441 133.000
558.835 134.800
558.228 127.000
557.623 131.400
557.017 131.000
556.410 130.600
555.804 124.600
555.198 131.400
554.591 129.600
553.985 135.800
553.379 131.200
552.772 131.000
552.165 132.400
551.558 138.400
550.952 130.200
550.344 127.200
549.738 130.000
549.131 126.600
548.524 129.200
547.918 135.600
547.310 129.600
546.704 128.800
546.096 130.200
545.489 121.200
544.882 129.000
544.274 127.400
543.668 127.200
543.060 127.200
542.453 127.800
541.845 130.800
541.237 132.200
540.630 131.000
540.022 122.800
539.415 127.600
538.807 127.800
538.199 128.800
537.592 127.200
536.984 129.600
536.376 126.400
535.768 126.200
535.160 129.800
534.552 131.600
533.943 136.400
533.336 123.000
532.728 127.800
532.119 127.000
531.510 133.400
530.903 124.000
530.294 129.200
529.686 131.800
529.077 128.800
528.468 134.600
527.859 131.400
527.252 132.400
526.643 132.400
526.034 126.800
525.425 132.600
524.816 132.800
524.207 123.600
523.598 128.600
522.989 129.800
522.380 133.200
521.772 136.800
521.163 124.600
520.553 129.000
519.944 130.800
519.335 127.000
518.725 131.800
518.116 128.200
517.507 126.000
516.897 122.600
516.288 128.200
515.678 127.000
515.069 136.800
514.458 133.000
513.848 125.800
513.238 128.600
512.629 129.600
512.019 124.200
511.409 128.800
510.799 134.000
510.189 129.000
509.579 131.000
508.968 128.000
508.358 128.800
507.748 130.000
507.138 132.200
506.528 130.200
505.918 130.800
505.307 133.400
504.696 132.600
504.086 131.800
503.476 127.600
502.864 127.200
502.254 132.400
501.644 123.600
501.032 134.000
500.421 134.200
499.811 134.400
499.200 134.800
498.589 132.800
497.978 134.000
497.367 132.200
496.755 135.000
496.145 138.400
495.533 133.600
494.922 134.200
494.311 135.400
493.699 133.400
493.088 133.600
492.476 133.200
491.865 137.000
491.253 137.600
490.641 138.600
490.029 137.000
489.418 140.400
488.806 148.800
488.194 138.400
487.582 144.200
486.971 139.600
486.358 143.200
485.747 145.000
485.134 149.200
484.523 139.400
483.910 137.000
483.298 142.000
482.686 141.200
482.073 142.000
481.461 139.600
480.848 134.000
480.235 137.000
479.624 134.600
479.011 141.400
478.398 129.200
477.786 144.800
477.173 139.800
476.560 134.400
475.948 146.400
475.334 145.400
474.721 150.600
474.108 144.400
473.496 133.600
472.882 137.000
472.269 133.000
471.655 137.400
471.043 132.800
470.430 138.600
469.816 132.800
469.202 134.200
468.589 131.200
467.975 136.400
467.363 137.200
466.749 140.200
466.135 135.200
465.521 133.000
464.907 130.800
464.293 131.800
463.680 127.000
463.066 131.400
462.452 125.000
461.838 133.800
461.223 127.000
460.609 135.400
459.996 128.200
459.382 135.000
458.768 134.600
458.154 128.800
457.538 136.000
456.924 134.200
456.309 131.000
455.695 135.200
455.080 139.000
454.466 140.400
453.851 131.400
453.237 133.200
452.622 130.800
452.008 128.600
451.393 133.400
450.778 137.000
450.162 131.000
449.547 134.000
448.932 129.400
448.318 134.000
447.703 130.000
447.088 130.000
446.472 136.600
445.856 137.000
445.241 141.200
444.626 141.800
444.010 135.400
443.395 139.600
442.780 133.000
442.164 140.200
441.548 136.400
440.932 140.200
440.317 137.800
439.700 128.200
439.085 126.800
438.469 137.400
437.853 134.800
437.237 140.400
436.622 142.200
436.005 141.400
435.389 149.400
434.773 142.400
434.156 139.400
433.541 143.200
432.923 143.400
432.308 150.800
431.690 146.400
431.075 144.400
430.457 141.200
429.841 157.000
429.225 149.400
428.608 148.000
427.992 155.600
427.374 151.400
426.757 154.400
426.141 147.800
425.523 154.600
424.907 154.400
424.289 148.400
423.673 160.000
423.055 157.000
422.438 157.000
421.821 155.400
421.203 163.800
420.587 158.000
419.969 159.400
419.351 162.800
418.734 161.200
418.116 164.000
417.498 165.600
416.882 160.800
416.263 175.600
415.645 165.400
415.027 164.600
414.410 169.600
413.792 167.400
413.174 173.400
412.555 167.600
411.938 170.400
411.320 162.200
410.702 176.400
410.083 172.000
409.466 169.200
408.847 167.800
408.229 173.000
407.610 168.000
406.991 176.000
406.373 177.800
405.754 166.000
405.136 167.800
404.518 172.800
403.899 175.600
403.280 176.200
402.661 167.200
402.042 169.400
401.423 171.400
400.804 174.000
400.185 177.200
399.566 172.400
398.947 166.200
398.328 164.400
397.708 166.800
397.089 166.800
396.470 162.800
395.850 160.400
395.231 166.200
394.612 161.400
393.992 159.800
393.373 157.400
392.753 150.200
392.134 158.400
391.514 157.400
390.893 162.000
390.273 154.800
389.654 153.800
389.034 157.800
388.414 160.200
387.794 150.200
387.174 153.200
386.553 156.800
385.933 159.600
385.313 151.800
384.693 155.800
384.072 156.600
383.452 160.400
382.832 160.000
382.212 157.200
381.590 164.800
380.970 171.600
380.350 175.000
379.729 170.000
379.108 182.600
378.487 189.800
377.867 199.000
377.245 201.800
376.625 198.800
376.004 209.800
375.382 207.000
374.762 215.200
374.141 225.600
373.519 223.400
372.898 231.400
372.276 248.000
371.655 245.800
371.033 243.000
370.412 250.800
369.791 265.200
369.169 277.600
368.548 277.400
367.926 289.400
367.305 284.000
366.682 307.200
366.061 326.400
365.439 316.400
364.818 319.800
364.195 330.400
363.573 324.800
362.951 311.400
362.329 328.800
361.707 310.000
361.084 295.200
360.462 303.800
359.840 306.400
359.217 306.800
358.596 330.600
357.973 348.400
357.350 360.000
356.728 363.600
356.105 392.000
355.482 418.200
354.860 418.800
354.237 431.800
353.614 433.200
352.991 435.200
352.369 451.000
351.745 473.000
351.122 497.400
350.499 526.200
349.876 554.600
349.253 637.200
348.629 683.600
348.006 714.600
347.382 743.400
346.760 750.000
346.136 800.600
345.513 821.800
344.889 895.200
344.265 981.200
343.641 1107.400
343.018 1286.000
342.395 1535.000
341.771 1966.800
341.147 2616.000
340.523 3593.400
339.899 4905.400
339.275 5823.800
338.651 5685.800
338.027 4448.400
337.403 3245.200
336.778 2440.400
336.154 1899.800
335.530 1587.000
334.905 1372.800
334.281 1215.400
333.657 1091.200
333.032 982.200
332.408 852.200
331.783 767.600
331.159 665.600
330.534 598.800
329.909 543.400
329.285 490.600
328.659 447.000
328.034 416.400
327.409 402.600
326.784 363.200
326.159 354.400
325.535 335.200
324.910 325.800
324.283 315.200
323.658 308.000
323.033 293.800
322.408 294.400
321.783 295.800
321.157 286.200
320.531 282.600
319.906 287.000
319.281 282.600
318.654 290.600
318.029 288.200
317.403 288.800
316.777 304.600
316.151 290.800
315.526 308.400
314.899 307.800
314.273 311.200
313.648 322.200
313.021 301.200
312.395 292.600
311.769 289.800
311.142 285.400
310.516 284.400
309.889 271.000
309.263 265.000
308.637 253.000
308.010 264.800
307.384 249.200
306.757 253.200
306.131 253.800
305.503 252.600
304.877 267.000
304.249 268.400
303.623 257.400
302.996 274.400
302.369 259.800
301.742 275.400
301.115 266.400
300.487 272.400
299.861 279.800
299.233 274.400
298.605 286.200
297.979 285.400
297.351 309.000
296.724 306.000
296.096 321.800
295.468 347.600
294.841 358.800
294.213 387.200
293.585 427.400
292.958 481.400
292.330 531.600
291.702 584.200
291.075 693.600
290.446 807.600
289.818 920.600
289.189 1072.200
288.562 1170.600
287.934 1174.000
287.305 1102.400
286.677 980.800
286.049 829.600
285.421 734.000
284.792 623.000
284.163 541.800
283.534 479.400
282.907 419.200
282.278 394.600
281.649 365.800
281.020 352.400
280.391 320.000
279.762 304.200
279.133 286.800
278.505 272.800
277.876 270.600
277.247 270.600
276.618 263.600
275.989 263.600
275.359 252.400
274.730 258.400
274.101 262.200
273.471 256.600
272.842 257.200
272.212 249.200
271.583 237.000
270.953 240.600
270.324 224.000
269.694 235.600
269.065 242.200
268.435 234.600
267.805 217.800
267.175 230.800
266.545 242.800
265.916 238.600
265.284 230.000
264.655 227.400
264.025 224.000
263.395 231.200
262.764 229.400
262.134 223.200
261.504 234.800
260.873 216.200
260.243 220.000
259.612 220.400
258.982 223.400
258.352 214.000
257.720 212.200
257.090 221.400
256.459 217.800
255.829 213.400
255.197 213.000
254.566 217.800
253.936 204.400
253.305 199.000
252.673 196.200
252.042 200.400
251.412 192.400
250.780 191.200
250.149 193.000
249.518 173.000
248.886 191.800
248.255 181.600
247.624 173.000
246.992 165.800
246.360 169.000
245.728 162.400
245.097 162.800
244.466 159.200
243.833 160.200
243.202 153.000
242.569 154.200
241.938 156.200
241.305 152.800
240.674 152.000
240.041 149.200
239.410 152.600
238.777 151.800
238.145 151.000
237.512 133.800
236.881 143.600
236.248 140.600
235.616 144.600
234.983 146.600
234.351 143.200
233.718 142.600
233.085 137.600
232.453 131.200
231.820 131.800
231.186 132.200
230.554 140.000
229.921 140.000
229.289 132.000
228.655 124.600
228.022 120.200
227.390 136.600
226.756 133.200
226.123 138.200
225.489 126.400
224.856 128.800
224.223 132.000
223.589 129.400
222.955 126.800
222.323 131.400
221.689 126.200
221.055 122.000
220.421 122.000
219.788 124.600
219.154 124.400
218.520 121.000
217.886 124.600
217.252 121.600
216.618 116.200
215.985 124.400
215.350 127.000
214.716 120.600
214.082 118.400
213.447 122.800
212.813 117.600
212.178 106.800
