834.788 150.200
834.204 149.800
833.621 147.800
833.037 157.600
832.453 159.600
831.870 161.200
831.286 147.400
830.702 162.200
830.118 156.600
829.535 158.600
828.950 159.600
828.367 159.000
827.782 154.200
827.198 160.200
826.615 154.600
826.030 158.800
825.446 162.800
824.861 162.800
824.277 161.000
823.692 156.400
823.109 165.600
822.523 158.000
821.940 166.200
821.354 157.800
820.770 157.600
820.185 169.000
819.601 160.600
819.016 158.000
818.431 152.200
817.846 157.600
817.261 161.800
816.677 157.600
816.091 158.800
815.506 151.600
814.922 157.800
814.336 156.800
813.750 166.600
813.166 153.200
812.580 156.400
811.995 150.600
811.410 154.000
810.824 163.000
810.239 157.000
809.653 148.800
809.068 155.000
808.482 162.000
807.896 157.000
807.310 162.800
806.724 156.400
806.139 156.200
805.553 156.600
804.967 157.800
804.381 154.600
803.795 150.000
803.209 166.800
802.624 155.000
802.037 155.200
801.451 163.800
800.865 148.000
800.278 158.400
799.692 156.600
799.105 163.400
798.519 155.200
797.932 157.200
797.346 156.600
796.759 161.000
796.173 156.400
795.586 153.200
794.999 148.600
794.412 162.000
793.826 151.800
793.239 152.400
792.652 158.600
792.065 155.400
791.478 152.600
790.891 149.600
790.303 157.600
789.716 152.200
789.129 152.400
788.542 162.000
787.955 162.200
787.368 156.800
786.781 145.400
786.192 161.000
785.605 157.000
785.018 161.600
784.430 161.200
783.842 146.800
783.254 161.600
782.667 153.400
782.079 150.200
781.491 157.800
780.903 158.400
780.316 150.800
779.727 162.200
779.139 153.600
778.551 149.200
777.963 153.600
777.375 151.200
776.787 151.200
776.198 161.600
775.610 154.800
775.022 160.400
774.433 162.600
773.845 160.600
773.256 157.000
772.668 151.000
772.079 157.800
771.491 144.600
770.901 163.600
770.313 154.000
769.724 158.400
769.136 158.000
768.546 157.600
767.958 156.200
767.368 163.800
766.780 165.000
766.190 160.800
765.602 153.800
765.012 158.000
764.422 157.000
763.834 152.600
763.244 157.200
762.655 163.000
762.066 165.200
761.476 162.800
760.887 153.600
760.297 161.400
759.707 161.600
759.117 164.600
758.528 156.400
757.938 161.200
757.348 154.600
756.759 153.800
756.169 160.400
755.578 161.000
754.988 166.600
754.398 157.000
753.809 161.600
753.218 167.600
752.628 166.400
752.037 155.600
751.447 159.600
750.858 160.000
750.267 159.000
749.676 158.400
749.086 157.200
748.495 164.400
747.904 162.800
747.314 155.400
746.723 154.800
746.132 159.000
745.541 164.200
744.950 166.200
744.360 161.800
743.769 159.800
743.178 159.200
742.587 167.000
741.996 165.400
741.404 164.600
740.813 164.600
740.222 170.000
739.631 172.200
739.040 168.000
738.449 165.600
737.857 158.400
737.266 167.800
736.674 173.000
736.083 160.000
735.490 166.400
734.899 171.000
734.307 157.400
733.716 168.400
733.124 163.800
732.533 164.000
731.940 162.400
731.348 169.200
730.756 169.000
730.165 170.000
729.572 161.000
728.980 164.200
728.388 156.800
727.796 173.600
727.203 166.000
726.611 168.600
726.019 163.600
725.426 173.800
724.834 163.200
724.242 165.200
723.648 164.200
723.056 167.000
722.464 162.800
721.870 165.600
721.278 162.200
720.685 165.200
720.092 164.400
719.500 177.600
718.906 165.600
718.314 166.000
717.720 176.200
717.127 170.400
716.534 165.400
715.941 173.400
715.347 166.400
714.755 173.000
714.161 172.800
713.568 169.000
712.974 168.200
712.380 168.200
711.787 168.800
711.193 176.000
710.600 178.000
710.006 168.600
709.412 181.800
708.819 173.000
708.224 178.800
707.631 183.400
707.037 181.400
706.443 184.000
705.848 187.800
705.255 176.400
704.660 184.600
704.066 204.800
703.472 191.400
702.878 188.200
702.283 192.600
701.689 196.200
701.095 186.800
700.500 195.000
699.906 198.400
699.311 194.000
698.716 193.600
698.122 205.800
697.527 195.200
696.932 210.400
696.337 202.200
695.742 204.600
695.147 203.000
694.552 197.800
693.957 198.000
693.363 206.600
692.768 214.200
692.173 217.200
691.578 213.600
690.982 209.400
690.387 213.000
689.791 215.600
689.196 216.600
688.601 216.200
688.005 219.800
687.410 222.400
686.814 223.400
686.218 225.400
685.623 237.200
685.027 220.400
684.431 229.200
683.835 232.600
683.239 228.000
682.643 229.200
682.047 229.200
681.451 228.800
680.855 243.000
680.259 239.400
679.663 235.000
679.066 239.400
678.470 238.600
677.874 252.000
677.278 251.200
676.682 258.400
676.084 275.600
675.488 273.000
674.892 260.200
674.296 260.600
673.698 272.000
673.102 279.400
672.505 282.200
671.908 276.600
671.311 274.800
670.715 277.000
670.117 288.200
669.520 287.600
668.924 295.000
668.326 288.800
667.729 278.200
667.132 281.000
666.534 287.800
665.937 292.200
665.339 284.600
664.743 278.600
664.146 283.800
663.548 272.800
662.950 271.000
662.352 269.200
661.755 277.400
661.157 263.400
660.560 271.200
659.961 257.400
659.364 263.400
658.766 255.600
658.168 269.200
657.570 259.400
656.971 256.600
656.374 251.400
655.775 252.600
655.178 243.800
654.579 246.600
653.980 248.800
653.383 236.600
652.784 236.400
652.185 240.000
651.588 241.600
650.989 238.600
650.390 241.800
649.792 236.800
649.193 230.800
648.594 223.800
647.996 232.000
647.397 220.600
646.798 221.200
646.199 220.000
645.599 219.400
645.001 224.600
644.402 223.400
643.803 217.000
643.203 209.200
642.604 218.200
642.006 212.800
641.406 220.000
640.806 216.600
640.207 211.400
639.607 209.400
639.008 219.200
638.408 213.400
637.808 206.000
637.210 216.400
636.610 209.800
636.010 203.200
635.410 207.800
634.810 200.200
634.211 205.000
633.611 211.600
633.011 203.600
632.411 198.000
631.810 206.600
631.210 210.200
630.610 188.600
630.010 199.800
629.410 199.800
628.808 195.000
628.208 191.400
627.608 177.800
627.007 198.200
626.407 198.600
625.807 200.200
625.206 203.000
624.606 197.400
624.004 196.400
623.403 207.000
622.803 209.000
622.202 205.800
621.601 197.800
620.999 189.400
620.399 193.600
619.798 200.000
619.197 204.400
618.596 205.400
617.994 197.600
617.393 189.400
616.792 198.000
616.190 186.200
615.589 200.000
614.988 187.000
614.385 200.400
613.784 189.200
613.183 188.000
612.581 196.200
611.979 194.400
611.378 199.600
610.776 188.800
610.174 186.200
609.572 182.400
608.970 199.000
608.369 193.000
607.766 194.000
607.164 193.000
606.561 194.600
605.960 198.200
605.357 190.200
604.755 190.600
604.152 185.400
603.551 186.000
602.948 185.400
602.346 185.400
601.743 186.200
601.139 188.400
600.537 178.200
599.934 182.600
599.332 183.800
598.729 189.200
598.126 183.000
597.524 182.800
596.920 194.400
596.318 183.400
595.715 187.200
595.111 188.000
594.509 179.800
593.905 173.400
593.301 185.200
592.698 177.000
592.095 173.600
591.492 181.000
590.888 173.000
590.285 179.000
589.681 179.600
589.078 163.400
588.474 180.200
587.870 177.200
587.267 174.400
586.663 169.400
586.059 166.400
585.455 170.600
584.851 173.800
584.247 181.400
583.644 169.800
583.039 169.600
582.435 167.800
581.831 170.200
581.227 169.000
580.622 166.800
580.018 170.800
579.413 158.200
578.809 166.400
578.204 171.000
577.600 165.000
576.995 167.200
576.390 164.400
575.786 161.600
575.181 167.800
574.576 158.800
573.972 157.400
573.367 168.800
572.762 170.600
572.157 164.000
571.552 158.800
570.947 159.800
570.342 164.000
569.737 168.200
569.131 167.200
568.526 164.200
567.921 159.200
567.315 166.400
566.710 149.200
566.105 150.200
565.498 162.800
564.893 151.600
564.288 151.000
563.682 159.800
563.077 159.400
562.470 156.000
561.865 152.400
561.259 154.800
560.654 155.600
560.047 155.400
559.441 154.000
558.835 150.000
558.228 147.600
557.623 158.400
557.017 150.200
556.410 159.800
555.804 160.600
555.198 150.400
554.591 157.400
553.985 151.000
553.379 154.000
552.772 157.200
552.165 149.600
551.558 157.400
550.952 154.000
550.344 158.400
549.738 159.400
549.131 152.600
548.524 151.000
547.918 141.400
547.310 152.600
546.704 156.000
546.096 154.400
545.489 147.800
544.882 164.200
544.274 150.000
543.668 150.800
543.060 147.600
542.453 157.000
541.845 147.400
541.237 154.600
540.630 150.000
540.022 142.200
539.415 151.600
538.807 147.400
538.199 158.000
537.592 148.200
536.984 147.600
536.376 149.400
535.768 150.000
535.160 151.200
534.552 159.800
533.943 155.200
533.336 144.400
532.728 154.400
532.119 150.200
531.510 152.600
530.903 151.000
530.294 152.400
529.686 153.400
529.077 148.200
528.468 157.000
527.859 156.600
527.252 149.200
526.643 152.000
526.034 147.200
525.425 153.200
524.816 153.000
524.207 158.800
523.598 145.000
522.989 150.400
522.380 145.000
521.772 143.400
521.163 146.200
520.553 151.600
519.944 148.200
519.335 151.200
518.725 149.600
518.116 152.400
517.507 142.400
516.897 150.800
516.288 146.600
515.678 154.200
515.069 150.600
514.458 149.600
513.848 151.600
513.238 150.000
512.629 152.600
512.019 154.800
511.409 158.400
510.799 142.600
510.189 160.000
509.579 150.800
508.968 152.200
508.358 155.000
507.748 158.000
507.138 159.800
506.528 157.200
505.918 156.400
505.307 151.400
504.696 148.400
504.086 148.200
503.476 153.400
502.864 157.000
502.254 155.000
501.644 149.800
501.032 146.400
500.421 155.400
499.811 157.600
499.200 159.600
498.589 160.000
497.978 160.200
497.367 144.600
496.755 154.000
496.145 155.600
495.533 151.800
494.922 160.200
494.311 153.600
493.699 157.000
493.088 153.800
492.476 152.000
491.865 157.400
491.253 158.000
490.641 156.600
490.029 157.400
489.418 153.200
488.806 154.600
488.194 167.600
487.582 158.600
486.971 165.000
486.358 158.000
485.747 163.800
485.134 162.400
484.523 166.000
483.910 161.200
483.298 164.200
482.686 165.600
482.073 166.000
481.461 158.800
480.848 171.000
480.235 166.200
479.624 161.000
479.011 163.600
478.398 164.800
477.786 167.800
477.173 168.200
476.560 160.400
475.948 170.000
475.334 161.000
474.721 166.800
474.108 160.400
473.496 162.400
472.882 167.400
472.269 169.600
471.655 162.400
471.043 164.800
470.430 159.600
469.816 158.800
469.202 161.000
468.589 165.800
467.975 152.800
467.363 157.400
466.749 160.400
466.135 153.200
465.521 157.400
464.907 155.600
464.293 156.600
463.680 156.800
463.066 148.200
462.452 158.200
461.838 152.000
461.223 143.800
460.609 159.200
459.996 150.800
459.382 161.000
458.768 149.800
458.154 154.000
457.538 153.400
456.924 155.600
456.309 143.600
455.695 149.600
455.080 159.600
454.466 155.400
453.851 158.400
453.237 161.000
452.622 150.000
452.008 155.000
451.393 154.600
450.778 154.000
450.162 155.400
449.547 144.400
448.932 160.200
448.318 155.600
447.703 147.800
447.088 149.400
446.472 151.400
445.856 164.000
445.241 151.000
444.626 157.400
444.010 157.600
443.395 158.600
442.780 166.000
442.164 158.400
441.548 155.000
440.932 160.600
440.317 152.400
439.700 156.600
439.085 165.200
438.469 153.000
437.853 153.600
437.237 160.000
436.622 159.000
436.005 159.000
435.389 166.400
434.773 158.800
434.156 171.400
433.541 166.800
432.923 172.000
432.308 173.200
431.690 168.400
431.075 175.600
430.457 179.000
429.841 167.400
429.225 170.400
428.608 179.200
427.992 182.200
427.374 169.000
426.757 169.400
426.141 178.400
425.523 184.400
424.907 186.400
424.289 181.600
423.673 174.400
423.055 174.400
422.438 182.800
421.821 178.800
421.203 193.400
420.587 188.400
419.969 185.200
419.351 192.000
418.734 189.800
418.116 199.200
417.498 192.200
416.882 189.000
416.263 197.000
415.645 194.200
415.027 195.400
414.410 189.400
413.792 195.800
413.174 191.200
412.555 204.400
411.938 195.200
411.320 185.800
410.702 199.200
410.083 204.000
409.466 202.400
408.847 200.200
408.229 193.400
407.610 203.000
406.991 200.200
406.373 190.200
405.754 196.000
405.136 191.200
404.518 201.000
403.899 197.800
403.280 194.600
402.661 211.000
402.042 210.000
401.423 196.400
400.804 199.200
400.185 206.000
399.566 202.200
398.947 198.400
398.328 204.600
397.708 198.200
397.089 193.000
396.470 204.600
395.850 200.400
395.231 192.000
394.612 198.200
393.992 195.000
393.373 198.200
392.753 196.000
392.134 189.200
391.514 187.000
390.893 190.000
390.273 185.400
389.654 179.400
389.034 191.000
388.414 197.200
387.794 191.800
387.174 181.800
386.553 190.000
385.933 193.000
385.313 189.600
384.693 188.600
384.072 195.400
383.452 194.800
382.832 190.200
382.212 188.800
381.590 189.400
380.970 200.600
380.350 206.000
379.729 195.600
379.108 195.400
378.487 219.600
377.867 221.600
377.245 226.800
376.625 240.800
376.004 243.000
375.382 256.600
374.762 264.000
374.141 269.600
373.519 277.200
372.898 298.000
372.276 300.200
371.655 321.400
371.033 325.400
370.412 343.200
369.791 354.400
369.169 359.000
368.548 385.800
367.926 410.600
367.305 427.000
366.682 416.200
366.061 452.600
365.439 477.400
364.818 497.800
364.195 516.600
363.573 559.800
362.951 591.000
362.329 608.800
361.707 639.200
361.084 686.600
360.462 726.200
359.840 757.400
359.217 798.800
358.596 820.000
357.973 825.400
357.350 849.000
356.728 862.600
356.105 857.400
355.482 834.000
354.860 853.800
354.237 835.000
353.614 817.000
352.991 827.800
352.369 828.400
351.745 837.200
351.122 850.000
350.499 873.800
349.876 911.400
349.253 909.800
348.629 962.000
348.006 990.600
347.382 1040.800
346.760 1070.800
346.136 1113.600
345.513 1180.000
344.889 1250.200
344.265 1356.200
343.641 1480.000
343.018 1643.800
342.395 1880.400
341.771 2149.200
341.147 2438.200
340.523 2746.400
339.899 3036.600
339.275 3237.600
338.651 3304.400
338.027 3382.400
337.403 3322.000
336.778 3261.200
336.154 3096.000
335.530 2939.400
334.905 2716.800
334.281 2516.200
333.657 2338.200
333.032 2110.000
332.408 1938.400
331.783 1752.400
331.159 1614.800
330.534 1426.600
329.909 1313.600
329.285 1198.400
328.659 1086.000
328.034 996.000
327.409 923.800
326.784 868.400
326.159 780.000
325.535 736.000
324.910 669.800
324.283 644.600
323.658 590.600
323.033 560.200
322.408 519.600
321.783 479.200
321.157 485.000
320.531 445.600
319.906 436.800
319.281 430.600
318.654 417.400
318.029 418.600
317.403 418.400
316.777 419.600
316.151 413.200
315.526 407.200
314.899 407.400
314.273 427.000
313.648 421.000
313.021 418.400
312.395 415.800
311.769 416.200
311.142 428.600
310.516 430.600
309.889 424.200
309.263 429.400
308.637 436.000
308.010 435.000
307.384 439.600
306.757 447.200
306.131 430.200
305.503 440.000
304.877 452.200
304.249 442.000
303.623 444.600
302.996 442.800
302.369 449.200
301.742 450.800
301.115 445.400
300.487 466.200
299.861 472.200
299.233 461.600
298.605 476.800
297.979 485.800
297.351 490.400
296.724 510.400
296.096 507.000
295.468 534.800
294.841 538.800
294.213 557.000
293.585 561.000
292.958 581.600
292.330 620.600
291.702 602.800
291.075 628.600
290.446 666.000
289.818 668.200
289.189 684.000
288.562 678.000
287.934 648.600
287.305 655.400
286.677 618.200
286.049 614.000
285.421 602.200
284.792 578.400
284.163 581.800
283.534 552.600
282.907 531.800
282.278 527.400
281.649 510.000
281.020 503.600
280.391 489.600
279.762 479.400
279.133 457.200
278.505 447.000
277.876 440.800
277.247 429.800
276.618 409.800
275.989 408.000
275.359 395.800
274.730 384.400
274.101 376.800
273.471 368.600
272.842 362.200
272.212 350.800
271.583 342.400
270.953 353.200
270.324 336.800
269.694 335.600
269.065 343.000
268.435 330.400
267.805 336.000
267.175 323.000
266.545 334.800
265.916 316.200
265.284 332.400
264.655 325.800
264.025 329.200
263.395 336.800
262.764 348.200
262.134 326.600
261.504 344.000
260.873 319.200
260.243 327.400
259.612 340.200
258.982 347.000
258.352 339.400
257.720 356.000
257.090 358.400
256.459 338.600
255.829 333.800
255.197 345.400
254.566 345.600
253.936 342.200
253.305 338.200
252.673 356.000
252.042 330.800
251.412 336.000
250.780 331.000
250.149 311.800
249.518 323.000
248.886 301.600
248.255 293.400
247.624 288.200
246.992 287.800
246.360 258.200
245.728 247.800
245.097 256.200
244.466 255.200
243.833 246.000
243.202 236.400
242.569 237.800
241.938 233.800
241.305 220.200
240.674 212.600
240.041 220.000
239.410 209.400
238.777 200.800
238.145 197.800
237.512 193.000
236.881 206.800
236.248 193.800
235.616 192.600
234.983 187.400
234.351 191.400
233.718 185.600
233.085 181.800
232.453 192.200
231.820 171.800
231.186 176.200
230.554 171.800
229.921 177.400
229.289 181.400
228.655 181.600
228.022 173.600
227.390 169.600
226.756 175.600
226.123 175.800
225.489 165.400
224.856 176.800
224.223 166.600
223.589 176.400
222.955 179.000
222.323 163.600
221.689 165.000
221.055 170.600
220.421 164.400
219.788 167.400
219.154 164.600
218.520 163.400
217.886 160.200
217.252 166.800
216.618 165.200
215.985 162.200
215.350 167.000
214.716 160.400
214.082 162.200
213.447 154.800
212.813 157.800
212.178 142.400
