834.788 151.400
834.204 139.800
833.621 136.600
833.037 142.200
832.453 140.400
831.870 148.400
831.286 152.400
830.702 145.000
830.118 149.400
829.535 143.000
828.950 150.000
828.367 149.400
827.782 143.200
827.198 149.000
826.615 136.200
826.030 148.200
825.446 144.600
824.861 141.700
824.277 134.800
823.692 143.200
823.109 143.200
822.523 139.800
821.940 138.800
821.354 147.800
820.770 149.000
820.185 147.600
819.601 137.000
819.016 143.000
818.431 141.400
817.846 145.800
817.261 132.800
816.677 149.800
816.091 145.600
815.506 142.600
814.922 144.400
814.336 139.600
813.750 141.600
813.166 146.400
812.580 142.800
811.995 148.600
811.410 142.800
810.824 148.600
810.239 146.800
809.653 138.600
809.068 135.200
808.482 140.000
807.896 146.000
807.310 152.600
806.724 148.400
806.139 146.800
805.553 144.000
804.967 146.800
804.381 141.600
803.795 144.200
803.209 138.800
802.624 145.000
802.037 151.000
801.451 147.400
800.865 144.400
800.278 147.000
799.692 140.400
799.105 136.200
798.519 148.200
797.932 146.000
797.346 150.000
796.759 142.000
796.173 142.600
795.586 144.200
794.999 140.600
794.412 147.200
793.826 143.400
793.239 143.200
792.652 149.600
792.065 156.600
791.478 147.400
790.891 151.400
790.303 137.200
789.716 148.000
789.129 148.400
788.542 139.400
787.955 142.000
787.368 142.000
786.781 143.000
786.192 139.800
785.605 143.800
785.018 145.000
784.430 141.600
783.842 149.200
783.254 145.200
782.667 151.200
782.079 152.800
781.491 146.800
780.903 142.200
780.316 145.000
779.727 136.200
779.139 146.600
778.551 145.600
777.963 151.200
777.375 142.200
776.787 147.000
776.198 144.200
775.610 138.400
775.022 147.800
774.433 151.600
773.845 144.400
773.256 156.200
772.668 145.200
772.079 144.200
771.491 148.000
770.901 141.000
770.313 151.000
769.724 150.200
769.136 147.000
768.546 155.000
767.958 142.200
767.368 142.200
766.780 133.000
766.190 137.400
765.602 147.600
765.012 140.800
764.422 151.600
763.834 143.200
763.244 143.800
762.655 152.400
762.066 150.800
761.476 150.200
760.887 149.600
760.297 140.800
759.707 145.800
759.117 149.000
758.528 139.000
757.938 155.000
757.348 145.800
756.759 152.600
756.169 144.400
755.578 149.000
754.988 153.000
754.398 145.400
753.809 144.800
753.218 148.000
752.628 145.000
752.037 145.600
751.447 149.400
750.858 140.000
750.267 145.800
749.676 149.200
749.086 150.800
748.495 149.000
747.904 151.000
747.314 143.600
746.723 149.600
746.132 149.600
745.541 154.600
744.950 148.600
744.360 142.200
743.769 150.400
743.178 150.000
742.587 151.800
741.996 145.600
741.404 153.800
740.813 147.400
740.222 147.400
739.631 150.400
739.040 150.800
738.449 146.000
737.857 149.600
737.266 150.200
736.674 149.600
736.083 157.200
735.490 145.400
734.899 149.800
734.307 157.600
733.716 152.600
733.124 149.400
732.533 159.200
731.940 148.600
731.348 153.800
730.756 150.800
730.165 156.600
729.572 149.800
728.980 150.800
728.388 152.200
727.796 155.400
727.203 151.000
726.611 147.400
726.019 151.400
725.426 157.200
724.834 149.200
724.242 153.600
723.648 152.000
723.056 149.000
722.464 144.600
721.870 155.200
721.278 152.600
720.685 151.000
720.092 152.000
719.500 164.600
718.906 146.200
718.314 158.400
717.720 152.600
717.127 160.800
716.534 154.800
715.941 151.800
715.347 161.200
714.755 153.400
714.161 151.000
713.568 159.200
712.974 151.200
712.380 157.600
711.787 151.400
711.193 150.000
710.600 159.000
710.006 158.400
709.412 154.200
708.819 159.800
708.224 152.800
707.631 158.200
707.037 166.400
706.443 157.000
705.848 163.600
705.255 168.000
704.660 162.200
704.066 194.000
703.472 163.200
702.878 176.400
702.283 168.600
701.689 166.200
701.095 170.800
700.500 177.000
699.906 168.800
699.311 162.800
698.716 164.600
698.122 175.600
697.527 177.000
696.932 172.200
696.337 167.400
695.742 180.200
695.147 180.400
694.552 189.400
693.957 183.000
693.363 183.400
692.768 168.400
692.173 186.400
691.578 197.000
690.982 183.400
690.387 198.000
689.791 194.000
689.196 191.600
688.601 188.800
688.005 199.800
687.410 200.600
686.814 195.000
686.218 195.000
685.623 194.600
685.027 203.800
684.431 203.400
683.835 204.800
683.239 207.400
682.643 200.600
682.047 203.400
681.451 212.000
680.855 217.000
680.259 208.400
679.663 215.600
679.066 208.600
678.470 223.200
677.874 214.600
677.278 228.000
676.682 220.800
676.084 233.000
675.488 227.200
674.892 226.600
674.296 233.600
673.698 229.000
673.102 248.600
672.505 238.200
671.908 240.600
671.311 233.600
670.715 246.800
670.117 234.800
669.520 242.200
668.924 257.400
668.326 249.800
667.729 247.600
667.132 241.200
666.534 254.000
665.937 261.600
665.339 266.600
664.743 260.400
664.146 265.200
663.548 259.800
662.950 254.600
662.352 265.000
661.755 243.200
661.157 259.000
660.560 253.600
659.961 253.800
659.364 250.200
658.766 263.400
658.168 262.200
657.570 247.000
656.971 252.800
656.374 246.800
655.775 251.000
655.178 243.400
654.579 246.600
653.980 232.400
653.383 232.600
652.784 235.800
652.185 230.800
651.588 247.800
650.989 239.600
650.390 233.800
649.792 226.400
649.193 231.600
648.594 243.200
647.996 225.800
647.397 220.600
646.798 228.600
646.199 218.000
645.599 222.200
645.001 230.400
644.402 214.200
643.803 213.800
643.203 209.800
642.604 212.400
642.006 206.200
641.406 203.000
640.806 210.000
640.207 206.800
639.607 202.200
639.008 197.600
638.408 200.200
637.808 210.200
637.210 200.800
636.610 198.200
636.010 201.600
635.410 206.000
634.810 197.800
634.211 197.400
633.611 199.200
633.011 193.800
632.411 194.600
631.810 194.200
631.210 192.400
630.610 168.200
630.010 196.600
629.410 194.000
628.808 197.200
628.208 192.400
627.608 176.000
627.007 192.400
626.407 188.400
625.807 186.800
625.206 188.200
624.606 184.800
624.004 190.800
623.403 188.000
622.803 186.800
622.202 196.200
621.601 185.600
620.999 195.200
620.399 182.800
619.798 192.600
619.197 184.200
618.596 185.800
617.994 183.600
617.393 198.000
616.792 186.800
616.190 186.400
615.589 179.000
614.988 183.400
614.385 186.200
613.784 189.600
613.183 189.200
612.581 184.400
611.979 183.600
611.378 191.600
610.776 176.400
610.174 186.000
609.572 188.000
608.970 181.800
608.369 188.000
607.766 185.000
607.164 179.000
606.561 184.800
605.960 175.800
605.357 174.600
604.755 185.000
604.152 183.000
603.551 172.200
602.948 179.800
602.346 180.400
601.743 180.400
601.139 192.600
600.537 180.200
599.934 176.400
599.332 186.400
598.729 179.800
598.126 172.400
597.524 173.400
596.920 181.400
596.318 175.800
595.715 170.200
595.111 174.800
594.509 179.000
593.905 172.200
593.301 187.200
592.698 171.000
592.095 181.800
591.492 172.600
590.888 171.200
590.285 165.400
589.681 172.600
589.078 164.200
588.474 174.400
587.870 167.800
587.267 168.600
586.663 174.000
586.059 164.200
585.455 164.200
584.851 170.400
584.247 174.200
583.644 167.000
583.039 164.600
582.435 158.200
581.831 163.000
581.227 160.000
580.622 170.400
580.018 169.600
579.413 159.200
578.809 161.800
578.204 159.600
577.600 164.800
576.995 162.200
576.390 158.200
575.786 168.600
575.181 161.400
574.576 163.800
573.972 155.000
573.367 159.800
572.762 163.200
572.157 155.800
571.552 163.000
570.947 156.600
570.342 159.800
569.737 147.600
569.131 164.600
568.526 159.400
567.921 156.000
567.315 150.600
566.710 153.000
566.105 157.800
565.498 168.400
564.893 154.600
564.288 153.000
563.682 148.400
563.077 152.200
562.470 141.200
561.865 157.400
561.259 140.000
560.654 154.400
560.047 156.200
559.441 155.000
558.835 156.000
558.228 156.000
557.623 151.400
557.017 150.800
556.410 150.000
555.804 146.000
555.198 151.800
554.591 151.400
553.985 156.800
553.379 150.600
552.772 148.200
552.165 152.800
551.558 153.200
550.952 149.400
550.344 152.600
549.738 158.200
549.131 154.600
548.524 137.000
547.918 145.200
547.310 147.000
546.704 154.200
546.096 152.200
545.489 150.800
544.882 151.200
544.274 153.600
543.668 151.800
543.060 152.600
542.453 143.000
541.845 150.600
541.237 143.600
540.630 151.800
540.022 149.800
539.415 152.400
538.807 150.800
538.199 149.600
537.592 153.800
536.984 148.400
536.376 151.600
535.768 150.400
535.160 148.600
534.552 159.800
533.943 146.600
533.336 154.600
532.728 152.800
532.119 156.600
531.510 145.000
530.903 156.800
530.294 149.800
529.686 150.800
529.077 142.600
528.468 144.800
527.859 146.600
527.252 155.800
526.643 142.800
526.034 157.400
525.425 144.000
524.816 141.200
524.207 153.200
523.598 146.400
522.989 153.400
522.380 144.600
521.772 147.600
521.163 146.000
520.553 149.200
519.944 152.000
519.335 148.200
518.725 144.600
518.116 154.200
517.507 143.600
516.897 147.000
516.288 149.000
515.678 140.400
515.069 139.000
514.458 148.800
513.848 138.400
513.238 147.600
512.629 149.700
512.019 151.000
511.409 146.000
510.799 142.400
510.189 143.400
509.579 150.200
508.968 155.600
508.358 148.600
507.748 148.600
507.138 150.800
506.528 150.800
505.918 147.800
505.307 146.400
504.696 152.400
504.086 143.600
503.476 156.800
502.864 156.800
502.254 159.200
501.644 145.400
501.032 152.800
500.421 146.000
499.811 153.200
499.200 154.600
498.589 142.000
497.978 150.600
497.367 158.200
496.755 154.200
496.145 155.800
495.533 147.400
494.922 143.400
494.311 156.800
493.699 148.200
493.088 144.400
492.476 159.800
491.865 163.800
491.253 161.200
490.641 159.200
490.029 164.200
489.418 153.600
488.806 160.000
488.194 154.600
487.582 161.400
486.971 154.800
486.358 161.400
485.747 158.600
485.134 153.200
484.523 154.800
483.910 165.600
483.298 163.600
482.686 157.000
482.073 164.800
481.461 157.800
480.848 166.600
480.235 161.800
479.624 160.200
479.011 165.400
478.398 158.200
477.786 169.400
477.173 169.800
476.560 172.800
475.948 154.600
475.334 163.000
474.721 158.400
474.108 163.400
473.496 159.600
472.882 167.600
472.269 166.400
471.655 165.000
471.043 158.400
470.430 165.800
469.816 167.400
469.202 162.600
468.589 158.600
467.975 155.600
467.363 163.600
466.749 157.400
466.135 164.000
465.521 164.400
464.907 157.000
464.293 158.000
463.680 163.400
463.066 158.200
462.452 165.400
461.838 168.000
461.223 165.600
460.609 155.000
459.996 160.600
459.382 149.200
458.768 164.800
458.154 155.800
457.538 156.400
456.924 156.600
456.309 149.600
455.695 161.000
455.080 153.600
454.466 154.000
453.851 152.800
453.237 158.800
452.622 159.600
452.008 165.200
451.393 159.600
450.778 160.600
450.162 154.800
449.547 153.200
448.932 155.800
448.318 159.600
447.703 161.000
447.088 157.800
446.472 155.400
445.856 160.200
445.241 156.200
444.626 169.200
444.010 154.600
443.395 147.600
442.780 168.000
442.164 165.400
441.548 161.400
440.932 151.200
440.317 163.200
439.700 157.600
439.085 161.200
438.469 158.000
437.853 164.000
437.237 157.800
436.622 161.800
436.005 159.600
435.389 174.200
434.773 157.200
434.156 164.200
433.541 163.000
432.923 160.200
432.308 175.400
431.690 167.600
431.075 165.000
430.457 170.400
429.841 166.400
429.225 170.600
428.608 179.400
427.992 158.000
427.374 176.400
426.757 175.200
426.141 178.800
425.523 173.000
424.907 181.000
424.289 180.600
423.673 166.600
423.055 177.400
422.438 173.400
421.821 182.800
421.203 187.000
420.587 183.000
419.969 193.600
419.351 193.400
418.734 182.000
418.116 192.000
417.498 197.400
416.882 187.000
416.263 185.600
415.645 196.000
415.027 188.200
414.410 187.600
413.792 192.200
413.174 190.800
412.555 199.600
411.938 200.600
411.320 190.400
410.702 194.000
410.083 191.000
409.466 185.200
408.847 204.200
408.229 193.800
407.610 202.800
406.991 197.400
406.373 199.600
405.754 198.000
405.136 207.400
404.518 201.800
403.899 192.600
403.280 206.600
402.661 202.600
402.042 214.400
401.423 193.600
400.804 210.400
400.185 199.200
399.566 208.400
398.947 211.600
398.328 206.800
397.708 210.600
397.089 208.000
396.470 202.800
395.850 202.000
395.231 198.400
394.612 202.400
393.992 198.800
393.373 203.800
392.753 198.200
392.134 201.600
391.514 206.000
390.893 200.400
390.273 192.400
389.654 198.600
389.034 195.000
388.414 188.600
387.794 207.200
387.174 196.200
386.553 196.000
385.933 199.200
385.313 202.800
384.693 191.600
384.072 200.200
383.452 196.200
382.832 197.000
382.212 199.400
381.590 199.600
380.970 203.200
380.350 204.000
379.729 205.400
379.108 197.600
378.487 217.200
377.867 209.000
377.245 207.600
376.625 221.800
376.004 216.800
375.382 224.800
374.762 230.400
374.141 236.000
373.519 251.600
372.898 249.600
372.276 255.800
371.655 264.400
371.033 266.400
370.412 283.600
369.791 284.600
369.169 302.800
368.548 316.400
367.926 319.400
367.305 333.000
366.682 360.400
366.061 361.000
365.439 372.400
364.818 376.800
364.195 378.800
363.573 412.200
362.951 428.400
362.329 439.800
361.707 453.200
361.084 473.800
360.462 490.400
359.840 519.000
359.217 525.800
358.596 550.200
357.973 573.200
357.350 602.400
356.728 601.400
356.105 633.800
355.482 644.000
354.860 670.800
354.237 682.800
353.614 711.400
352.991 706.000
352.369 729.600
351.745 770.600
351.122 771.600
350.499 811.800
349.876 848.800
349.253 885.600
348.629 922.200
348.006 960.200
347.382 999.200
346.760 1032.600
346.136 1076.800
345.513 1142.400
344.889 1194.000
344.265 1223.800
343.641 1298.600
343.018 1396.000
342.395 1452.400
341.771 1546.000
341.147 1725.200
340.523 1887.000
339.899 2070.200
339.275 2323.000
338.651 2542.400
338.027 2752.800
337.403 2990.400
336.778 3111.800
336.154 3127.800
335.530 3156.000
334.905 3128.200
334.281 3081.800
333.657 2986.200
333.032 2832.400
332.408 2703.200
331.783 2526.600
331.159 2346.800
330.534 2197.200
329.909 1999.200
329.285 1844.200
328.659 1696.800
328.034 1560.600
327.409 1407.600
326.784 1314.400
326.159 1205.000
325.535 1114.200
324.910 1039.400
324.283 930.400
323.658 878.000
323.033 818.000
322.408 764.000
321.783 712.200
321.157 671.000
320.531 629.600
319.906 590.000
319.281 557.400
318.654 544.400
318.029 507.600
317.403 495.800
316.777 482.600
316.151 475.600
315.526 463.400
314.899 452.200
314.273 464.000
313.648 430.200
313.021 442.600
312.395 446.200
311.769 445.600
311.142 453.600
310.516 449.200
309.889 455.200
309.263 441.800
308.637 451.200
308.010 466.600
307.384 465.600
306.757 457.400
306.131 461.600
305.503 449.400
304.877 453.400
304.249 446.600
303.623 454.400
302.996 448.200
302.369 450.800
301.742 462.200
301.115 463.600
300.487 459.600
299.861 471.800
299.233 463.000
298.605 454.200
297.979 476.600
297.351 489.000
296.724 484.000
296.096 489.400
295.468 500.000
294.841 503.800
294.213 520.400
293.585 514.200
292.958 513.800
292.330 541.600
291.702 542.600
291.075 575.200
290.446 563.000
289.818 582.000
289.189 606.800
288.562 619.200
287.934 595.200
287.305 624.000
286.677 607.800
286.049 610.200
285.421 600.600
284.792 588.000
284.163 572.800
283.534 543.400
282.907 521.200
282.278 537.400
281.649 523.200
281.020 486.400
280.391 495.400
279.762 487.800
279.133 483.000
278.505 462.400
277.876 460.600
277.247 443.200
276.618 436.000
275.989 431.200
275.359 410.200
274.730 403.800
274.101 388.800
273.471 400.600
272.842 385.000
272.212 378.600
271.583 364.800
270.953 362.200
270.324 378.600
269.694 373.600
269.065 362.400
268.435 347.400
267.805 347.000
267.175 341.600
266.545 342.000
265.916 343.400
265.284 357.000
264.655 345.800
264.025 342.600
263.395 357.000
262.764 334.400
262.134 347.200
261.504 337.600
260.873 348.800
260.243 338.200
259.612 357.800
258.982 343.800
258.352 350.400
257.720 354.000
257.090 346.800
256.459 344.400
255.829 350.800
255.197 348.000
254.566 346.800
253.936 349.600
253.305 352.400
252.673 348.600
252.042 341.000
251.412 335.000
250.780 329.400
250.149 313.200
249.518 308.000
248.886 304.400
248.255 311.000
247.624 302.000
246.992 291.000
246.360 277.400
245.728 273.200
245.097 277.000
244.466 270.600
243.833 254.000
243.202 256.000
242.569 247.200
241.938 248.600
241.305 238.000
240.674 251.600
240.041 232.000
239.410 233.600
238.777 225.200
238.145 216.200
237.512 214.400
236.881 222.800
236.248 200.600
235.616 202.600
234.983 200.600
234.351 212.800
233.718 197.000
233.085 192.800
232.453 194.000
231.820 193.200
231.186 201.600
230.554 194.800
229.921 195.400
229.289 192.000
228.655 186.200
228.022 194.800
227.390 181.600
226.756 180.600
226.123 190.400
225.489 184.400
224.856 190.200
224.223 183.800
223.589 186.800
222.955 182.400
222.323 184.600
221.689 178.600
221.055 190.400
220.421 187.600
219.788 185.800
219.154 178.800
218.520 173.800
217.886 180.200
217.252 173.200
216.618 171.800
215.985 187.000
215.350 166.200
214.716 167.800
214.082 174.600
213.447 179.200
212.813 164.200
212.178 172.400
