834.788 182.000
834.204 184.600
833.621 178.800
833.037 189.400
832.453 185.000
831.870 178.000
831.286 187.000
830.702 182.400
830.118 183.400
829.535 173.800
828.950 185.200
828.367 179.600
827.782 179.200
827.198 180.600
826.615 178.200
826.030 178.400
825.446 182.400
824.861 183.800
824.277 181.200
823.692 186.800
823.109 179.200
822.523 179.400
821.940 183.600
821.354 181.200
820.770 187.000
820.185 185.000
819.601 179.200
819.016 177.600
818.431 178.600
817.846 175.000
817.261 182.000
816.677 184.600
816.091 182.000
815.506 182.600
814.922 182.400
814.336 178.200
813.750 176.200
813.166 185.800
812.580 186.400
811.995 171.200
811.410 179.000
810.824 178.400
810.239 184.200
809.653 178.800
809.068 178.800
808.482 182.000
807.896 178.600
807.310 177.000
806.724 182.600
806.139 179.000
805.553 172.400
804.967 180.800
804.381 176.400
803.795 182.800
803.209 177.200
802.624 179.400
802.037 179.800
801.451 170.800
800.865 182.800
800.278 176.600
799.692 172.600
799.105 176.400
798.519 179.800
797.932 178.400
797.346 175.800
796.759 180.600
796.173 184.800
795.586 177.800
794.999 177.400
794.412 188.200
793.826 176.800
793.239 179.600
792.652 175.600
792.065 174.400
791.478 183.400
790.891 186.400
790.303 169.400
789.716 177.600
789.129 177.800
788.542 185.000
787.955 182.800
787.368 180.400
786.781 176.600
786.192 180.800
785.605 178.200
785.018 172.600
784.430 177.000
783.842 185.000
783.254 161.200
782.667 192.200
782.079 179.000
781.491 178.200
780.903 182.800
780.316 189.400
779.727 174.800
779.139 173.600
778.551 180.800
777.963 175.800
777.375 191.400
776.787 179.600
776.198 181.200
775.610 172.800
775.022 173.200
774.433 178.800
773.845 170.800
773.256 187.400
772.668 183.600
772.079 178.800
771.491 172.200
770.901 177.200
770.313 188.200
769.724 167.200
769.136 182.800
768.546 184.400
767.958 177.800
767.368 175.400
766.780 171.000
766.190 174.600
765.602 178.400
765.012 181.200
764.422 180.000
763.834 176.400
763.244 171.400
762.655 190.400
762.066 187.000
761.476 183.000
760.887 181.800
760.297 179.400
759.707 186.800
759.117 180.200
758.528 177.400
757.938 189.400
757.348 179.200
756.759 179.600
756.169 178.800
755.578 173.600
754.988 180.200
754.398 179.400
753.809 183.600
753.218 175.800
752.628 178.400
752.037 190.400
751.447 182.000
750.858 182.400
750.267 187.200
749.676 182.600
749.086 179.200
748.495 176.200
747.904 173.400
747.314 180.000
746.723 190.800
746.132 184.600
745.541 185.800
744.950 182.200
744.360 178.000
743.769 181.600
743.178 185.600
742.587 182.400
741.996 176.600
741.404 187.800
740.813 188.800
740.222 188.000
739.631 184.600
739.040 181.600
738.449 190.200
737.857 186.000
737.266 187.600
736.674 185.200
736.083 177.200
735.490 181.800
734.899 182.800
734.307 176.200
733.716 189.200
733.124 185.200
732.533 171.200
731.940 183.800
731.348 180.600
730.756 174.200
730.165 184.000
729.572 177.200
728.980 179.600
728.388 180.400
727.796 175.200
727.203 175.200
726.611 182.600
726.019 183.600
725.426 185.800
724.834 186.400
724.242 187.200
723.648 182.000
723.056 183.400
722.464 179.200
721.870 184.400
721.278 185.600
720.685 175.400
720.092 186.800
719.500 180.200
718.906 178.400
718.314 192.400
717.720 184.200
717.127 182.000
716.534 179.600
715.941 188.200
715.347 181.800
714.755 190.400
714.161 192.200
713.568 177.200
712.974 186.000
712.380 191.400
711.787 187.800
711.193 186.400
710.600 181.600
710.006 185.000
709.412 194.400
708.819 184.800
708.224 188.200
707.631 192.200
707.037 192.000
706.443 188.000
705.848 198.600
705.255 190.800
704.660 184.200
704.066 209.800
703.472 193.800
702.878 194.400
702.283 193.800
701.689 209.000
701.095 194.600
700.500 197.400
699.906 198.400
699.311 200.000
698.716 201.200
698.122 205.400
697.527 207.800
696.932 202.800
696.337 202.600
695.742 196.200
695.147 204.400
694.552 209.400
693.957 203.200
693.363 209.000
692.768 210.400
692.173 203.800
691.578 208.600
690.982 219.200
690.387 213.600
689.791 204.400
689.196 220.600
688.601 211.000
688.005 217.200
687.410 217.400
686.814 213.600
686.218 215.800
685.623 223.400
685.027 220.400
684.431 212.000
683.835 217.400
683.239 226.000
682.643 219.600
682.047 226.000
681.451 224.800
680.855 211.200
680.259 235.600
679.663 236.600
679.066 228.600
678.470 237.400
677.874 223.400
677.278 230.400
676.682 222.600
676.084 230.200
675.488 245.600
674.892 240.800
674.296 241.000
673.698 245.200
673.102 243.800
672.505 247.000
671.908 242.600
671.311 244.600
670.715 241.800
670.117 247.200
669.520 254.200
668.924 251.000
668.326 248.400
667.729 257.800
667.132 253.600
666.534 248.400
665.937 251.800
665.339 251.000
664.743 247.000
664.146 248.000
663.548 251.200
662.950 250.800
662.352 245.000
661.755 248.400
661.157 236.200
660.560 244.800
659.961 247.200
659.364 246.000
658.766 252.200
658.168 245.000
657.570 243.800
656.971 246.400
656.374 242.600
655.775 241.600
655.178 243.000
654.579 237.200
653.980 239.400
653.383 236.400
652.784 233.200
652.185 245.400
651.588 232.200
650.989 234.000
650.390 244.200
649.792 238.200
649.193 250.400
648.594 241.200
647.996 225.400
647.397 233.000
646.798 231.000
646.199 227.400
645.599 224.200
645.001 227.000
644.402 224.400
643.803 219.000
643.203 219.600
642.604 226.800
642.006 224.600
641.406 229.600
640.806 218.400
640.207 219.000
639.607 216.200
639.008 221.200
638.408 220.200
637.808 214.600
637.210 210.000
636.610 225.400
636.010 219.000
635.410 216.800
634.810 219.800
634.211 214.000
633.611 210.800
633.011 227.000
632.411 218.200
631.810 220.000
631.210 216.800
630.610 212.000
630.010 209.000
629.410 216.800
628.808 209.000
628.208 223.000
627.608 181.400
627.007 217.600
626.407 217.600
625.807 212.400
625.206 209.200
624.606 215.600
624.004 205.800
623.403 214.200
622.803 215.000
622.202 212.200
621.601 211.200
620.999 214.200
620.399 206.200
619.798 218.600
619.197 199.800
618.596 210.400
617.994 201.400
617.393 206.600
616.792 208.600
616.190 206.600
615.589 206.000
614.988 199.800
614.385 207.800
613.784 199.400
613.183 201.600
612.581 195.000
611.979 212.800
611.378 197.800
610.776 203.400
610.174 207.600
609.572 199.000
608.970 199.800
608.369 208.800
607.766 208.400
607.164 209.400
606.561 214.400
605.960 190.600
605.357 199.000
604.755 197.600
604.152 205.400
603.551 202.200
602.948 202.800
602.346 196.600
601.743 198.600
601.139 201.800
600.537 204.000
599.934 197.000
599.332 198.400
598.729 203.400
598.126 190.400
597.524 203.600
596.920 195.800
596.318 195.600
595.715 198.000
595.111 187.000
594.509 200.000
593.905 199.800
593.301 197.800
592.698 201.000
592.095 191.000
591.492 198.200
590.888 188.000
590.285 205.400
589.681 183.000
589.078 190.400
588.474 193.400
587.870 202.600
587.267 196.800
586.663 194.600
586.059 191.600
585.455 195.400
584.851 188.800
584.247 189.200
583.644 187.200
583.039 184.000
582.435 183.000
581.831 176.800
581.227 189.200
580.622 191.800
580.018 190.000
579.413 192.000
578.809 196.600
578.204 185.200
577.600 191.000
576.995 184.000
576.390 183.400
575.786 178.000
575.181 182.200
574.576 186.200
573.972 186.200
573.367 183.600
572.762 184.800
572.157 186.200
571.552 178.200
570.947 185.000
570.342 188.200
569.737 182.200
569.131 179.200
568.526 180.200
567.921 176.400
567.315 191.800
566.710 185.800
566.105 187.400
565.498 189.400
564.893 178.200
564.288 175.600
563.682 176.000
563.077 178.600
562.470 170.400
561.865 175.800
561.259 177.200
560.654 172.800
560.047 174.600
559.441 177.800
558.835 176.000
558.228 175.000
557.623 173.400
557.017 176.400
556.410 180.600
555.804 177.800
555.198 179.400
554.591 181.400
553.985 173.600
553.379 181.600
552.772 167.800
552.165 179.800
551.558 177.600
550.952 177.600
550.344 166.600
549.738 174.400
549.131 171.800
548.524 184.600
547.918 176.400
547.310 178.800
546.704 176.800
546.096 173.600
545.489 174.800
544.882 179.200
544.274 172.600
543.668 176.800
543.060 176.200
542.453 170.400
541.845 176.400
541.237 171.000
540.630 171.400
540.022 179.800
539.415 174.000
538.807 172.200
538.199 166.800
537.592 175.800
536.984 175.200
536.376 177.600
535.768 174.000
535.160 174.800
534.552 183.000
533.943 174.200
533.336 167.000
532.728 173.400
532.119 173.800
531.510 176.400
530.903 177.600
530.294 184.200
529.686 181.800
529.077 163.800
528.468 178.200
527.859 173.600
527.252 172.000
526.643 161.800
526.034 170.400
525.425 177.800
524.816 166.600
524.207 176.800
523.598 170.800
522.989 175.000
522.380 173.200
521.772 172.200
521.163 175.400
520.553 180.200
519.944 171.600
519.335 181.200
518.725 168.600
518.116 173.200
517.507 173.800
516.897 163.200
516.288 175.000
515.678 177.800
515.069 168.400
514.458 176.400
513.848 172.200
513.238 173.200
512.629 185.000
512.019 184.800
511.409 175.600
510.799 177.600
510.189 169.000
509.579 167.800
508.968 184.400
508.358 178.400
507.748 175.200
507.138 176.800
506.528 175.400
505.918 184.800
505.307 176.800
504.696 178.600
504.086 178.600
503.476 182.200
502.864 181.000
502.254 178.800
501.644 176.400
501.032 175.400
500.421 179.600
499.811 178.600
499.200 174.800
498.589 186.200
497.978 185.400
497.367 175.600
496.755 182.800
496.145 188.000
495.533 181.000
494.922 178.800
494.311 178.200
493.699 174.200
493.088 162.800
492.476 190.200
491.865 181.800
491.253 173.200
490.641 184.800
490.029 187.600
489.418 178.400
488.806 170.800
488.194 175.400
487.582 191.200
486.971 182.000
486.358 182.200
485.747 187.200
485.134 177.800
484.523 187.800
483.910 191.400
483.298 190.000
482.686 199.200
482.073 196.400
481.461 195.400
480.848 192.000
480.235 195.200
479.624 194.400
479.011 196.400
478.398 183.600
477.786 192.400
477.173 198.600
476.560 198.000
475.948 193.600
475.334 197.600
474.721 197.400
474.108 193.200
473.496 197.400
472.882 188.200
472.269 193.600
471.655 185.400
471.043 194.400
470.430 199.400
469.816 194.400
469.202 187.200
468.589 191.800
467.975 189.600
467.363 181.600
466.749 190.200
466.135 185.600
465.521 195.400
464.907 184.200
464.293 190.600
463.680 180.200
463.066 185.000
462.452 178.800
461.838 178.600
461.223 178.400
460.609 184.000
459.996 185.800
459.382 196.600
458.768 186.400
458.154 184.000
457.538 185.000
456.924 187.600
456.309 178.000
455.695 182.400
455.080 179.000
454.466 177.200
453.851 181.600
453.237 182.400
452.622 184.600
452.008 186.200
451.393 179.800
450.778 183.400
450.162 178.600
449.547 175.800
448.932 184.600
448.318 179.400
447.703 177.400
447.088 183.600
446.472 185.600
445.856 179.400
445.241 177.800
444.626 177.600
444.010 180.800
443.395 185.800
442.780 179.400
442.164 180.800
441.548 183.600
440.932 184.000
440.317 181.200
439.700 172.800
439.085 166.600
438.469 185.400
437.853 186.600
437.237 182.400
436.622 201.400
436.005 183.600
435.389 185.400
434.773 183.400
434.156 183.000
433.541 183.400
432.923 179.800
432.308 179.400
431.690 186.000
431.075 190.400
430.457 192.000
429.841 189.800
429.225 185.000
428.608 186.000
427.992 188.000
427.374 190.000
426.757 183.800
426.141 188.800
425.523 194.200
424.907 193.400
424.289 191.600
423.673 190.000
423.055 198.400
422.438 193.000
421.821 197.800
421.203 200.400
420.587 204.200
419.969 199.600
419.351 198.200
418.734 199.200
418.116 202.000
417.498 194.800
416.882 203.200
416.263 199.200
415.645 200.400
415.027 215.400
414.410 200.000
413.792 205.600
413.174 194.200
412.555 204.000
411.938 199.200
411.320 199.600
410.702 210.000
410.083 203.000
409.466 200.600
408.847 198.600
408.229 210.000
407.610 205.000
406.991 199.000
406.373 210.200
405.754 199.600
405.136 203.200
404.518 216.600
403.899 213.200
403.280 204.800
402.661 202.400
402.042 205.400
401.423 207.600
400.804 206.600
400.185 203.000
399.566 207.600
398.947 209.200
398.328 203.800
397.708 200.000
397.089 210.000
396.470 204.000
395.850 211.600
395.231 202.400
394.612 209.000
393.992 205.200
393.373 209.000
392.753 212.000
392.134 207.600
391.514 200.000
390.893 202.600
390.273 197.400
389.654 194.800
389.034 195.600
388.414 205.400
387.794 207.200
387.174 202.400
386.553 207.800
385.933 207.000
385.313 208.800
384.693 205.000
384.072 209.200
383.452 210.800
382.832 207.800
382.212 211.800
381.590 210.600
380.970 208.200
380.350 207.800
379.729 211.600
379.108 215.800
378.487 226.600
377.867 236.800
377.245 229.800
376.625 235.800
376.004 237.600
375.382 252.400
374.762 259.000
374.141 250.600
373.519 265.000
372.898 276.400
372.276 277.400
371.655 284.400
371.033 279.200
370.412 291.600
369.791 298.800
369.169 303.800
368.548 323.400
367.926 336.000
367.305 331.400
366.682 340.000
366.061 354.000
365.439 350.600
364.818 375.800
364.195 375.800
363.573 393.800
362.951 416.400
362.329 410.800
361.707 445.000
361.084 443.000
360.462 463.200
359.840 489.200
359.217 479.800
358.596 495.400
357.973 515.000
357.350 514.600
356.728 523.600
356.105 534.000
355.482 535.600
354.860 558.600
354.237 552.400
353.614 550.400
352.991 563.200
352.369 585.200
351.745 594.200
351.122 606.000
350.499 640.400
349.876 632.600
349.253 666.000
348.629 670.200
348.006 699.200
347.382 744.000
346.760 735.800
346.136 793.800
345.513 804.800
344.889 848.000
344.265 909.400
343.641 1013.600
343.018 1093.600
342.395 1176.600
341.771 1270.400
341.147 1411.400
340.523 1493.000
339.899 1618.800
339.275 1716.400
338.651 1812.000
338.027 1840.200
337.403 1858.400
336.778 1921.000
336.154 1879.000
335.530 1860.800
334.905 1794.400
334.281 1755.600
333.657 1648.200
333.032 1583.200
332.408 1511.600
331.783 1422.400
331.159 1343.000
330.534 1230.400
329.909 1183.800
329.285 1097.800
328.659 1029.800
328.034 953.600
327.409 901.000
326.784 852.200
326.159 803.200
325.535 738.400
324.910 710.800
324.283 686.000
323.658 642.400
323.033 604.400
322.408 563.400
321.783 557.400
321.157 525.600
320.531 501.000
319.906 486.000
319.281 474.200
318.654 456.600
318.029 446.000
317.403 418.400
316.777 425.000
316.151 411.600
315.526 416.200
314.899 400.800
314.273 394.600
313.648 406.000
313.021 401.200
312.395 390.000
311.769 395.800
311.142 394.000
310.516 377.200
309.889 384.800
309.263 376.000
308.637 393.800
308.010 390.200
307.384 391.600
306.757 396.800
306.131 391.800
305.503 390.200
304.877 380.600
304.249 386.200
303.623 384.000
302.996 388.400
302.369 398.000
301.742 384.000
301.115 393.800
300.487 402.200
299.861 391.800
299.233 396.600
298.605 391.400
297.979 407.800
297.351 409.800
296.724 426.000
296.096 428.400
295.468 426.800
294.841 431.600
294.213 438.400
293.585 441.400
292.958 452.200
292.330 457.800
291.702 464.400
291.075 447.600
290.446 476.000
289.818 484.800
289.189 465.400
288.562 481.200
287.934 458.200
287.305 472.400
286.677 458.200
286.049 462.200
285.421 443.600
284.792 446.600
284.163 432.400
283.534 411.400
282.907 410.800
282.278 411.400
281.649 390.200
281.020 407.000
280.391 392.000
279.762 387.800
279.133 385.600
278.505 370.000
277.876 373.200
277.247 357.200
276.618 349.400
275.989 348.600
275.359 348.600
274.730 324.000
274.101 331.600
273.471 327.600
272.842 329.000
272.212 321.200
271.583 313.600
270.953 319.000
270.324 315.400
269.694 310.200
269.065 309.600
268.435 313.200
267.805 305.200
267.175 305.000
266.545 285.600
265.916 306.200
265.284 293.000
264.655 296.800
264.025 295.800
263.395 293.400
262.764 284.400
262.134 291.000
261.504 301.200
260.873 288.400
260.243 281.200
259.612 294.600
258.982 300.400
258.352 299.400
257.720 292.800
257.090 296.200
256.459 298.600
255.829 295.800
255.197 285.800
254.566 296.000
253.936 285.400
253.305 280.800
252.673 289.000
252.042 268.800
251.412 280.800
250.780 269.200
250.149 275.600
249.518 259.200
248.886 259.800
248.255 250.600
247.624 243.600
246.992 249.800
246.360 248.200
245.728 244.200
245.097 232.000
244.466 230.800
243.833 233.200
243.202 223.800
242.569 227.600
241.938 227.600
241.305 217.000
240.674 212.800
240.041 216.400
239.410 203.800
238.777 202.400
238.145 196.400
237.512 205.800
236.881 208.800
236.248 199.000
235.616 196.200
234.983 198.400
234.351 202.200
233.718 194.600
233.085 196.800
232.453 192.400
231.820 192.000
231.186 188.600
230.554 182.600
229.921 184.800
229.289 183.800
228.655 182.000
228.022 184.400
227.390 193.000
226.756 180.800
226.123 184.400
225.489 174.200
224.856 184.000
224.223 182.000
223.589 187.600
222.955 182.600
222.323 179.200
221.689 179.200
221.055 180.800
220.421 182.400
219.788 176.200
219.154 183.800
218.520 174.000
217.886 169.000
217.252 179.000
216.618 178.200
215.985 166.000
215.350 171.600
214.716 170.800
214.082 172.200
213.447 177.400
212.813 162.800
212.178 161.800
