834.788 188.400
834.204 187.400
833.621 179.400
833.037 185.000
832.453 170.400
831.870 184.200
831.286 179.400
830.702 186.000
830.118 181.200
829.535 174.800
828.950 176.000
828.367 184.400
827.782 187.400
827.198 179.400
826.615 173.000
826.030 191.400
825.446 184.800
824.861 186.800
824.277 187.600
823.692 180.200
823.109 180.600
822.523 187.800
821.940 183.800
821.354 185.800
820.770 181.800
820.185 183.400
819.601 177.000
819.016 178.600
818.431 182.400
817.846 182.600
817.261 171.600
816.677 172.400
816.091 179.200
815.506 173.400
814.922 176.000
814.336 185.600
813.750 178.600
813.166 178.600
812.580 180.600
811.995 169.600
811.410 183.200
810.824 180.400
810.239 176.800
809.653 183.200
809.068 180.000
808.482 171.600
807.896 184.200
807.310 167.600
806.724 171.600
806.139 177.600
805.553 177.400
804.967 167.000
804.381 175.200
803.795 179.200
803.209 178.400
802.624 178.200
802.037 179.400
801.451 179.800
800.865 173.800
800.278 178.600
799.692 169.800
799.105 179.000
798.519 179.800
797.932 173.000
797.346 178.000
796.759 177.800
796.173 179.600
795.586 183.200
794.999 188.200
794.412 173.600
793.826 176.000
793.239 173.600
792.652 170.600
792.065 176.200
791.478 176.000
790.891 172.800
790.303 169.800
789.716 175.600
789.129 182.600
788.542 172.600
787.955 176.600
787.368 172.600
786.781 178.600
786.192 179.600
785.605 168.600
785.018 171.400
784.430 167.400
783.842 186.400
783.254 176.800
782.667 175.600
782.079 176.800
781.491 173.000
780.903 182.600
780.316 179.600
779.727 172.600
779.139 185.000
778.551 175.000
777.963 182.400
777.375 175.200
776.787 178.400
776.198 171.000
775.610 182.000
775.022 180.400
774.433 169.000
773.845 183.800
773.256 182.400
772.668 178.000
772.079 176.200
771.491 183.400
770.901 171.600
770.313 176.600
769.724 174.600
769.136 172.400
768.546 182.800
767.958 182.600
767.368 179.000
766.780 164.200
766.190 179.000
765.602 169.400
765.012 180.400
764.422 175.200
763.834 175.400
763.244 179.400
762.655 177.200
762.066 177.400
761.476 172.400
760.887 164.600
760.297 170.000
759.707 175.600
759.117 183.000
758.528 175.400
757.938 180.400
757.348 174.600
756.759 177.400
756.169 176.000
755.578 184.000
754.988 189.600
754.398 180.200
753.809 182.400
753.218 181.600
752.628 188.200
752.037 177.800
751.447 170.800
750.858 168.000
750.267 185.600
749.676 183.600
749.086 176.200
748.495 181.800
747.904 183.600
747.314 191.600
746.723 185.800
746.132 177.200
745.541 183.600
744.950 181.600
744.360 173.000
743.769 184.600
743.178 173.200
742.587 180.600
741.996 176.800
741.404 176.000
740.813 177.000
740.222 178.400
739.631 181.800
739.040 176.800
738.449 178.200
737.857 190.600
737.266 180.600
736.674 172.200
736.083 176.200
735.490 181.400
734.899 174.000
734.307 178.200
733.716 187.200
733.124 176.200
732.533 171.000
731.940 172.800
731.348 177.400
730.756 182.800
730.165 185.600
729.572 173.200
728.980 174.600
728.388 185.800
727.796 175.400
727.203 176.000
726.611 173.800
726.019 173.600
725.426 167.400
724.834 174.400
724.242 171.000
723.648 175.800
723.056 167.800
722.464 177.200
721.870 167.400
721.278 176.200
720.685 168.400
720.092 171.600
719.500 175.400
718.906 173.000
718.314 166.000
717.720 172.600
717.127 161.600
716.534 156.600
715.941 172.000
715.347 176.000
714.755 169.800
714.161 172.400
713.568 167.000
712.974 177.600
712.380 175.200
711.787 170.400
711.193 166.400
710.600 169.200
710.006 172.600
709.412 176.400
708.819 164.400
708.224 158.800
707.631 163.200
707.037 168.600
706.443 171.400
705.848 172.400
705.255 166.000
704.660 162.600
704.066 207.800
703.472 165.000
702.878 171.200
702.283 168.000
701.689 166.800
701.095 166.800
700.500 166.000
699.906 163.800
699.311 156.200
698.716 155.600
698.122 165.200
697.527 168.000
696.932 168.400
696.337 167.800
695.742 170.400
695.147 169.000
694.552 173.000
693.957 165.000
693.363 168.200
692.768 168.000
692.173 165.800
691.578 172.800
690.982 166.200
690.387 169.800
689.791 160.800
689.196 167.800
688.601 171.000
688.005 168.800
687.410 161.600
686.814 161.000
686.218 160.200
685.623 163.400
685.027 167.600
684.431 166.200
683.835 160.800
683.239 163.800
682.643 163.800
682.047 159.800
681.451 158.200
680.855 165.000
680.259 164.200
679.663 159.000
679.066 157.000
678.470 162.800
677.874 164.200
677.278 153.400
676.682 159.400
676.084 164.600
675.488 165.800
674.892 166.800
674.296 162.800
673.698 160.400
673.102 168.000
672.505 161.400
671.908 153.200
671.311 156.800
670.715 158.400
670.117 171.000
669.520 167.000
668.924 166.200
668.326 163.600
667.729 169.000
667.132 162.400
666.534 172.400
665.937 162.800
665.339 167.200
664.743 158.600
664.146 165.200
663.548 155.600
662.950 157.800
662.352 164.800
661.755 168.000
661.157 159.600
660.560 164.200
659.961 164.200
659.364 169.400
658.766 161.200
658.168 162.800
657.570 163.400
656.971 167.400
656.374 170.800
655.775 163.000
655.178 156.800
654.579 159.600
653.980 168.200
653.383 160.200
652.784 166.600
652.185 171.400
651.588 163.400
650.989 165.600
650.390 164.600
649.792 168.000
649.193 160.800
648.594 167.800
647.996 170.800
647.397 168.200
646.798 178.000
646.199 159.200
645.599 172.800
645.001 169.000
644.402 166.600
643.803 157.800
643.203 145.600
642.604 168.400
642.006 163.200
641.406 162.400
640.806 158.600
640.207 168.800
639.607 166.800
639.008 162.600
638.408 159.000
637.808 164.800
637.210 163.000
636.610 167.800
636.010 161.600
635.410 165.800
634.810 147.200
634.211 159.400
633.611 160.600
633.011 169.800
632.411 168.400
631.810 168.800
631.210 152.800
630.610 153.200
630.010 159.600
629.410 161.600
628.808 172.200
628.208 171.400
627.608 130.600
627.007 161.400
626.407 162.000
625.807 170.800
625.206 171.800
624.606 163.400
624.004 158.400
623.403 166.400
622.803 168.000
622.202 163.800
621.601 161.000
620.999 164.000
620.399 164.200
619.798 169.200
619.197 164.400
618.596 160.600
617.994 165.600
617.393 163.000
616.792 167.000
616.190 167.600
615.589 158.800
614.988 166.000
614.385 164.400
613.784 175.200
613.183 169.600
612.581 170.400
611.979 170.200
611.378 157.800
610.776 171.400
610.174 170.600
609.572 168.200
608.970 172.800
608.369 165.200
607.766 163.000
607.164 171.400
606.561 167.400
605.960 176.200
605.357 169.400
604.755 173.200
604.152 170.600
603.551 169.200
602.948 174.000
602.346 170.000
601.743 168.600
601.139 168.800
600.537 172.000
599.934 166.000
599.332 172.800
598.729 172.600
598.126 168.200
597.524 180.200
596.920 172.400
596.318 172.800
595.715 176.000
595.111 165.800
594.509 173.600
593.905 167.600
593.301 180.000
592.698 159.000
592.095 165.800
591.492 165.800
590.888 175.600
590.285 171.200
589.681 175.400
589.078 162.800
588.474 171.000
587.870 178.800
587.267 188.800
586.663 172.000
586.059 177.800
585.455 176.800
584.851 170.800
584.247 175.000
583.644 165.400
583.039 180.000
582.435 170.600
581.831 177.400
581.227 172.000
580.622 175.600
580.018 168.600
579.413 169.000
578.809 177.200
578.204 169.400
577.600 173.600
576.995 167.400
576.390 187.600
575.786 179.000
575.181 178.800
574.576 171.600
573.972 171.400
573.367 177.800
572.762 170.600
572.157 180.600
571.552 181.200
570.947 177.200
570.342 178.200
569.737 185.600
569.131 186.600
568.526 178.200
567.921 179.000
567.315 187.400
566.710 195.600
566.105 192.800
565.498 195.200
564.893 192.400
564.288 186.200
563.682 185.600
563.077 186.000
562.470 182.400
561.865 184.600
561.259 188.200
560.654 181.000
560.047 190.400
559.441 177.200
558.835 189.200
558.228 186.000
557.623 186.800
557.017 198.800
556.410 198.600
555.804 196.800
555.198 195.400
554.591 211.600
553.985 202.600
553.379 190.800
552.772 206.000
552.165 201.600
551.558 197.800
550.952 206.600
550.344 196.400
549.738 207.600
549.131 203.800
548.524 207.800
547.918 215.800
547.310 197.600
546.704 213.400
546.096 213.600
545.489 214.400
544.882 214.000
544.274 208.600
543.668 221.800
543.060 215.800
542.453 219.800
541.845 207.200
541.237 213.200
540.630 217.400
540.022 213.200
539.415 213.600
538.807 214.400
538.199 208.200
537.592 210.400
536.984 212.600
536.376 213.000
535.768 204.600
535.160 203.000
534.552 206.200
533.943 211.600
533.336 208.400
532.728 205.200
532.119 204.400
531.510 211.600
530.903 214.600
530.294 204.600
529.686 212.200
529.077 196.600
528.468 205.200
527.859 216.000
527.252 213.400
526.643 206.600
526.034 211.600
525.425 227.600
524.816 212.800
524.207 218.400
523.598 218.800
522.989 216.800
522.380 239.400
521.772 218.400
521.163 232.000
520.553 232.400
519.944 220.400
519.335 227.400
518.725 224.000
518.116 220.600
517.507 229.000
516.897 223.800
516.288 221.800
515.678 214.200
515.069 216.600
514.458 222.200
513.848 222.600
513.238 223.800
512.629 227.800
512.019 230.400
511.409 232.800
510.799 220.800
510.189 233.200
509.579 230.600
508.968 231.000
508.358 236.800
507.748 240.800
507.138 234.800
506.528 231.000
505.918 253.800
505.307 241.800
504.696 248.000
504.086 238.400
503.476 247.400
502.864 267.600
502.254 270.600
501.644 261.800
501.032 277.000
500.421 267.800
499.811 279.200
499.200 281.000
498.589 305.000
497.978 297.800
497.367 299.400
496.755 309.000
496.145 312.000
495.533 330.000
494.922 327.000
494.311 349.600
493.699 362.400
493.088 350.200
492.476 379.800
491.865 398.600
491.253 431.200
490.641 430.400
490.029 458.600
489.418 467.600
488.806 510.800
488.194 533.000
487.582 555.800
486.971 614.400
486.358 659.800
485.747 716.400
485.134 786.200
484.523 868.000
483.910 970.600
483.298 1072.000
482.686 1212.600
482.073 1378.000
481.461 1542.400
480.848 1807.800
480.235 2133.200
479.624 2425.000
479.011 2803.800
478.398 3187.000
477.786 3475.600
477.173 3648.400
476.560 3708.400
475.948 3709.600
475.334 3436.200
474.721 3095.200
474.108 2768.000
473.496 2447.800
472.882 2101.800
472.269 1828.000
471.655 1653.000
471.043 1429.800
470.430 1263.200
469.816 1150.400
469.202 1052.200
468.589 938.800
467.975 849.600
467.363 807.000
466.749 771.000
466.135 715.000
465.521 685.800
464.907 646.000
464.293 637.200
463.680 596.400
463.066 565.000
462.452 564.800
461.838 523.200
461.223 505.000
460.609 485.600
459.996 460.800
459.382 428.200
458.768 416.600
458.154 403.600
457.538 376.600
456.924 371.400
456.309 361.800
455.695 346.600
455.080 335.400
454.466 330.000
453.851 298.400
453.237 292.000
452.622 284.000
452.008 282.600
451.393 274.600
450.778 262.800
450.162 260.600
449.547 251.000
448.932 243.600
448.318 247.000
447.703 237.200
447.088 235.600
446.472 232.200
445.856 221.200
445.241 226.000
444.626 224.800
444.010 210.000
443.395 207.000
442.780 213.400
442.164 205.600
441.548 213.600
440.932 195.000
440.317 219.200
439.700 208.600
439.085 202.200
438.469 202.800
437.853 188.400
437.237 198.000
436.622 192.600
436.005 201.000
435.389 200.000
434.773 197.400
434.156 199.200
433.541 201.200
432.923 190.200
432.308 195.800
431.690 191.800
431.075 188.000
430.457 190.200
429.841 182.200
429.225 184.800
428.608 190.200
427.992 194.800
427.374 200.600
426.757 189.200
426.141 186.600
425.523 187.000
424.907 182.400
424.289 184.600
423.673 179.600
423.055 181.800
422.438 186.600
421.821 187.600
421.203 187.400
420.587 188.600
419.969 196.600
419.351 185.000
418.734 197.600
418.116 188.400
417.498 192.400
416.882 201.000
416.263 202.000
415.645 184.200
415.027 193.200
414.410 192.800
413.792 190.400
413.174 206.800
412.555 195.600
411.938 190.800
411.320 193.800
410.702 192.200
410.083 203.400
409.466 192.800
408.847 187.000
408.229 186.000
407.610 196.200
406.991 198.800
406.373 186.200
405.754 194.600
405.136 192.000
404.518 189.600
403.899 190.400
403.280 189.400
402.661 181.600
402.042 188.400
401.423 190.000
400.804 200.800
400.185 196.400
399.566 184.600
398.947 189.400
398.328 192.800
397.708 187.400
397.089 196.000
396.470 196.800
395.850 192.800
395.231 186.400
394.612 199.000
393.992 184.000
393.373 182.600
392.753 193.600
392.134 193.400
391.514 188.800
390.893 187.400
390.273 190.600
389.654 190.000
389.034 186.800
388.414 190.400
387.794 189.200
387.174 187.800
386.553 185.600
385.933 186.000
385.313 191.600
384.693 186.000
384.072 182.400
383.452 176.800
382.832 175.200
382.212 186.200
381.590 177.600
380.970 183.000
380.350 167.800
379.729 178.400
379.108 187.800
378.487 183.600
377.867 174.400
377.245 178.800
376.625 175.200
376.004 178.600
375.382 184.400
374.762 181.600
374.141 171.600
373.519 180.800
372.898 182.200
372.276 177.000
371.655 176.000
371.033 178.200
370.412 177.200
369.791 174.200
369.169 176.000
368.548 181.200
367.926 180.400
367.305 172.400
366.682 172.600
366.061 176.800
365.439 178.400
364.818 169.000
364.195 172.400
363.573 181.000
362.951 169.000
362.329 180.400
361.707 173.600
361.084 174.200
360.462 178.200
359.840 170.600
359.217 175.000
358.596 170.400
357.973 179.800
357.350 173.200
356.728 177.400
356.105 183.200
355.482 173.200
354.860 188.800
354.237 169.800
353.614 177.000
352.991 166.400
352.369 166.200
351.745 179.400
351.122 172.800
350.499 177.600
349.876 177.200
349.253 181.400
348.629 170.400
348.006 178.000
347.382 186.400
346.760 165.800
346.136 169.200
345.513 192.600
344.889 175.800
344.265 187.400
343.641 185.000
343.018 191.600
342.395 188.200
341.771 202.000
341.147 203.800
340.523 204.200
339.899 205.800
339.275 196.600
338.651 205.400
338.027 211.200
337.403 196.800
336.778 197.600
336.154 198.800
335.530 197.600
334.905 197.400
334.281 190.200
333.657 192.600
333.032 190.600
332.408 186.400
331.783 189.400
331.159 188.200
330.534 186.800
329.909 185.200
329.285 180.600
328.659 173.400
328.034 181.600
327.409 170.600
326.784 160.400
326.159 175.200
325.535 174.800
324.910 177.000
324.283 166.600
323.658 177.000
323.033 172.400
322.408 173.400
321.783 168.600
321.157 170.000
320.531 165.800
319.906 173.800
319.281 175.200
318.654 171.800
318.029 172.800
317.403 167.000
316.777 173.000
316.151 182.200
315.526 169.600
314.899 173.800
314.273 177.400
313.648 174.400
313.021 166.000
312.395 173.800
311.769 173.600
311.142 177.200
310.516 173.400
309.889 171.000
309.263 168.400
308.637 160.200
308.010 162.600
307.384 162.400
306.757 172.000
306.131 162.800
305.503 169.000
304.877 169.400
304.249 162.800
303.623 178.600
302.996 171.000
302.369 171.400
301.742 167.400
301.115 167.600
300.487 170.400
299.861 173.800
299.233 166.000
298.605 172.400
297.979 166.800
297.351 171.000
296.724 168.200
296.096 174.600
295.468 173.800
294.841 171.800
294.213 172.000
293.585 171.400
292.958 178.200
292.330 175.400
291.702 179.400
291.075 179.400
290.446 178.800
289.818 181.400
289.189 174.600
288.562 180.400
287.934 187.600
287.305 192.600
286.677 178.800
286.049 188.200
285.421 185.000
284.792 195.600
284.163 193.800
283.534 193.600
282.907 195.400
282.278 205.200
281.649 201.200
281.020 219.000
280.391 218.800
279.762 225.000
279.133 219.400
278.505 228.400
277.876 248.000
277.247 238.400
276.618 248.200
275.989 262.800
275.359 272.600
274.730 267.800
274.101 276.800
273.471 283.200
272.842 297.800
272.212 299.800
271.583 318.000
270.953 322.400
270.324 326.000
269.694 322.200
269.065 321.600
268.435 316.000
267.805 323.600
267.175 313.000
266.545 323.600
265.916 316.000
265.284 303.800
264.655 300.400
264.025 299.000
263.395 285.800
262.764 283.200
262.134 276.200
261.504 263.400
260.873 252.800
260.243 245.800
259.612 250.200
258.982 237.200
258.352 229.600
257.720 224.800
257.090 225.000
256.459 209.000
255.829 206.400
255.197 199.000
254.566 193.000
253.936 186.600
253.305 184.800
252.673 190.200
252.042 177.400
251.412 175.600
250.780 169.800
250.149 169.200
249.518 169.400
248.886 161.600
248.255 166.800
247.624 168.800
246.992 159.600
246.360 164.000
245.728 153.600
245.097 162.600
244.466 153.800
243.833 153.600
243.202 148.200
242.569 152.600
241.938 146.600
241.305 159.200
240.674 145.400
240.041 150.000
239.410 150.600
238.777 151.200
238.145 147.600
237.512 145.800
236.881 155.200
236.248 144.000
235.616 154.000
234.983 151.600
234.351 156.000
233.718 147.400
233.085 151.000
232.453 150.600
231.820 156.800
231.186 147.400
230.554 146.400
229.921 147.800
229.289 146.400
228.655 148.800
228.022 147.000
227.390 143.600
226.756 143.400
226.123 146.800
225.489 147.000
224.856 143.800
224.223 149.600
223.589 146.000
222.955 141.400
222.323 143.200
221.689 142.600
221.055 148.000
220.421 140.600
219.788 146.000
219.154 140.600
218.520 140.200
217.886 143.800
217.252 139.200
216.618 143.800
215.985 141.800
215.350 135.200
214.716 147.600
214.082 139.600
213.447 142.800
212.813 130.000
212.178 137.800
