834.788 199.000
834.204 190.000
833.621 193.400
833.037 197.000
832.453 197.600
831.870 200.600
831.286 191.800
830.702 206.600
830.118 190.600
829.535 204.000
828.950 201.600
828.367 195.800
827.782 193.000
827.198 189.800
826.615 202.200
826.030 190.200
825.446 200.000
824.861 200.600
824.277 200.600
823.692 188.400
823.109 190.800
822.523 189.000
821.940 200.400
821.354 191.200
820.770 197.800
820.185 199.200
819.601 189.600
819.016 188.600
818.431 185.400
817.846 192.800
817.261 198.800
816.677 186.400
816.091 197.600
815.506 189.000
814.922 202.200
814.336 192.000
813.750 191.800
813.166 189.800
812.580 196.400
811.995 190.200
811.410 188.000
810.824 187.400
810.239 188.400
809.653 193.600
809.068 192.600
808.482 193.400
807.896 195.800
807.310 188.800
806.724 189.200
806.139 185.800
805.553 188.200
804.967 194.200
804.381 196.000
803.795 189.000
803.209 199.400
802.624 188.600
802.037 185.200
801.451 191.800
800.865 186.400
800.278 192.400
799.692 190.400
799.105 195.600
798.519 188.000
797.932 188.800
797.346 193.200
796.759 198.000
796.173 197.600
795.586 186.600
794.999 191.600
794.412 187.600
793.826 189.800
793.239 176.600
792.652 189.800
792.065 196.400
791.478 183.800
790.891 200.800
790.303 190.200
789.716 185.800
789.129 180.400
788.542 198.000
787.955 197.800
787.368 191.000
786.781 203.000
786.192 183.400
785.605 190.600
785.018 181.000
784.430 189.600
783.842 195.200
783.254 195.800
782.667 187.000
782.079 190.600
781.491 187.400
780.903 185.200
780.316 191.000
779.727 190.000
779.139 195.800
778.551 194.600
777.963 196.200
777.375 197.200
776.787 190.600
776.198 194.600
775.610 186.200
775.022 190.600
774.433 191.800
773.845 194.000
773.256 198.800
772.668 192.200
772.079 198.400
771.491 194.600
770.901 196.600
770.313 191.800
769.724 195.000
769.136 193.800
768.546 188.800
767.958 195.200
767.368 198.000
766.780 189.800
766.190 186.400
765.602 198.400
765.012 189.800
764.422 200.600
763.834 199.800
763.244 197.600
762.655 196.200
762.066 193.000
761.476 193.800
760.887 180.400
760.297 194.600
759.707 184.800
759.117 201.800
758.528 202.000
757.938 198.400
757.348 192.800
756.759 194.000
756.169 191.800
755.578 190.200
754.988 194.600
754.398 203.400
753.809 202.000
753.218 212.400
752.628 201.800
752.037 207.400
751.447 201.800
750.858 201.200
750.267 201.400
749.676 197.000
749.086 201.200
748.495 201.800
747.904 199.400
747.314 201.200
746.723 201.800
746.132 205.600
745.541 210.600
744.950 204.200
744.360 202.200
743.769 212.000
743.178 204.200
742.587 209.800
741.996 195.800
741.404 197.000
740.813 208.000
740.222 201.000
739.631 199.800
739.040 196.000
738.449 198.000
737.857 200.000
737.266 204.200
736.674 205.000
736.083 206.000
735.490 202.000
734.899 192.600
734.307 196.000
733.716 195.200
733.124 196.000
732.533 192.400
731.940 196.200
731.348 190.600
730.756 196.800
730.165 194.800
729.572 195.000
728.980 198.000
728.388 186.800
727.796 199.600
727.203 188.400
726.611 193.600
726.019 188.000
725.426 186.600
724.834 197.800
724.242 197.400
723.648 193.400
723.056 194.400
722.464 190.400
721.870 182.800
721.278 195.200
720.685 196.600
720.092 192.400
719.500 202.000
718.906 193.000
718.314 199.200
717.720 199.800
717.127 188.200
716.534 184.600
715.941 189.400
715.347 195.400
714.755 194.400
714.161 192.600
713.568 189.200
712.974 189.000
712.380 191.400
711.787 187.800
711.193 182.200
710.600 197.800
710.006 188.000
709.412 191.600
708.819 177.000
708.224 186.600
707.631 190.800
707.037 186.600
706.443 189.600
705.848 187.800
705.255 183.000
704.660 188.800
704.066 223.200
703.472 183.400
702.878 190.800
702.283 181.000
701.689 195.600
701.095 185.400
700.500 188.000
699.906 193.000
699.311 186.400
698.716 183.800
698.122 187.600
697.527 190.600
696.932 186.400
696.337 180.200
695.742 194.000
695.147 191.400
694.552 189.200
693.957 181.600
693.363 187.400
692.768 183.400
692.173 177.000
691.578 184.200
690.982 193.400
690.387 181.000
689.791 194.000
689.196 192.200
688.601 183.800
688.005 190.000
687.410 194.000
686.814 186.200
686.218 188.000
685.623 187.400
685.027 178.400
684.431 188.600
683.835 194.200
683.239 184.000
682.643 187.600
682.047 191.800
681.451 194.000
680.855 200.800
680.259 189.200
679.663 192.200
679.066 188.600
678.470 186.600
677.874 184.200
677.278 187.000
676.682 197.600
676.084 191.000
675.488 194.200
674.892 191.000
674.296 186.600
673.698 185.800
673.102 200.600
672.505 193.800
671.908 197.400
671.311 193.200
670.715 197.000
670.117 194.400
669.520 189.000
668.924 190.200
668.326 188.200
667.729 198.200
667.132 202.600
666.534 202.200
665.937 194.800
665.339 192.400
664.743 200.600
664.146 192.200
663.548 195.800
662.950 195.400
662.352 184.000
661.755 188.000
661.157 189.600
660.560 189.200
659.961 188.600
659.364 200.800
658.766 188.800
658.168 190.400
657.570 192.000
656.971 198.600
656.374 190.400
655.775 197.400
655.178 188.800
654.579 190.400
653.980 194.000
653.383 194.400
652.784 192.400
652.185 182.600
651.588 188.400
650.989 188.600
650.390 187.600
649.792 189.200
649.193 182.000
648.594 186.800
647.996 189.200
647.397 197.000
646.798 187.800
646.199 189.000
645.599 185.400
645.001 194.800
644.402 195.000
643.803 182.400
643.203 192.600
642.604 186.000
642.006 189.800
641.406 188.400
640.806 192.200
640.207 193.800
639.607 197.000
639.008 185.200
638.408 194.200
637.808 185.400
637.210 182.600
636.610 186.200
636.010 184.400
635.410 187.600
634.810 202.200
634.211 188.200
633.611 185.400
633.011 189.600
632.411 189.600
631.810 189.600
631.210 189.200
630.610 178.200
630.010 182.200
629.410 192.200
628.808 179.800
628.208 192.600
627.608 160.200
627.007 185.800
626.407 192.200
625.807 191.000
625.206 193.600
624.606 192.000
624.004 191.800
623.403 190.800
622.803 192.400
622.202 188.600
621.601 195.600
620.999 186.400
620.399 191.400
619.798 188.000
619.197 200.800
618.596 181.800
617.994 187.600
617.393 198.400
616.792 194.400
616.190 194.800
615.589 193.800
614.988 194.600
614.385 195.800
613.784 196.200
613.183 186.200
612.581 187.200
611.979 191.200
611.378 192.800
610.776 187.200
610.174 187.400
609.572 189.600
608.970 196.600
608.369 202.800
607.766 192.000
607.164 188.600
606.561 200.000
605.960 200.200
605.357 187.400
604.755 194.000
604.152 183.600
603.551 190.800
602.948 195.200
602.346 204.800
601.743 204.400
601.139 204.000
600.537 196.800
599.934 207.600
599.332 202.600
598.729 195.800
598.126 193.600
597.524 194.000
596.920 202.400
596.318 191.000
595.715 196.200
595.111 192.600
594.509 198.400
593.905 199.200
593.301 192.200
592.698 203.600
592.095 192.400
591.492 199.800
590.888 188.600
590.285 188.600
589.681 190.600
589.078 193.000
588.474 205.400
587.870 194.800
587.267 188.800
586.663 201.600
586.059 198.200
585.455 196.400
584.851 196.200
584.247 208.400
583.644 197.400
583.039 200.400
582.435 196.400
581.831 196.400
581.227 200.000
580.622 195.800
580.018 199.800
579.413 200.400
578.809 198.400
578.204 199.400
577.600 198.800
576.995 197.000
576.390 204.800
575.786 202.800
575.181 206.800
574.576 208.000
573.972 203.800
573.367 200.000
572.762 216.000
572.157 215.800
571.552 202.800
570.947 212.200
570.342 210.600
569.737 226.400
569.131 216.800
568.526 203.800
567.921 205.200
567.315 213.000
566.710 217.400
566.105 211.400
565.498 215.600
564.893 215.600
564.288 227.600
563.682 218.600
563.077 212.600
562.470 211.000
561.865 218.400
561.259 216.000
560.654 228.600
560.047 216.600
559.441 211.400
558.835 218.600
558.228 235.000
557.623 224.200
557.017 228.200
556.410 228.000
555.804 238.200
555.198 220.000
554.591 220.200
553.985 227.800
553.379 236.600
552.772 236.600
552.165 233.800
551.558 236.200
550.952 236.000
550.344 238.000
549.738 240.000
549.131 225.600
548.524 248.400
547.918 241.000
547.310 246.000
546.704 231.000
546.096 248.600
545.489 249.600
544.882 246.400
544.274 242.000
543.668 241.600
543.060 239.800
542.453 246.600
541.845 243.200
541.237 245.000
540.630 239.400
540.022 247.000
539.415 238.800
538.807 241.600
538.199 234.400
537.592 240.000
536.984 234.000
536.376 233.200
535.768 225.200
535.160 235.200
534.552 241.000
533.943 236.600
533.336 237.800
532.728 234.600
532.119 234.800
531.510 226.800
530.903 243.600
530.294 240.200
529.686 235.000
529.077 238.200
528.468 235.800
527.859 245.600
527.252 246.000
526.643 248.800
526.034 246.600
525.425 241.200
524.816 249.000
524.207 253.600
523.598 251.800
522.989 259.400
522.380 242.400
521.772 259.800
521.163 266.800
520.553 271.000
519.944 249.000
519.335 264.000
518.725 256.400
518.116 258.600
517.507 261.800
516.897 262.400
516.288 256.600
515.678 251.600
515.069 257.000
514.458 258.200
513.848 264.000
513.238 267.200
512.629 259.200
512.019 250.400
511.409 257.800
510.799 274.200
510.189 272.600
509.579 262.800
508.968 267.000
508.358 272.600
507.748 272.400
507.138 278.800
506.528 273.800
505.918 281.400
505.307 292.000
504.696 300.200
504.086 300.800
503.476 293.200
502.864 307.000
502.254 313.000
501.644 315.400
501.032 328.800
500.421 341.600
499.811 342.000
499.200 356.600
498.589 348.200
497.978 364.400
497.367 375.000
496.755 374.800
496.145 375.800
495.533 410.400
494.922 424.200
494.311 429.200
493.699 424.000
493.088 441.000
492.476 468.600
491.865 501.600
491.253 533.200
490.641 562.800
490.029 584.600
489.418 630.800
488.806 652.000
488.194 683.200
487.582 765.200
486.971 807.600
486.358 886.400
485.747 973.800
485.134 1065.800
484.523 1192.000
483.910 1336.400
483.298 1486.000
482.686 1720.600
482.073 1989.600
481.461 2370.000
480.848 2783.000
480.235 3189.200
479.624 3735.200
479.011 4254.600
478.398 4664.400
477.786 4981.400
477.173 5095.600
476.560 4988.400
475.948 4665.200
475.334 4235.600
474.721 3724.200
474.108 3227.200
473.496 2761.000
472.882 2353.800
472.269 2040.400
471.655 1770.400
471.043 1555.200
470.430 1399.200
469.816 1232.800
469.202 1112.000
468.589 1021.200
467.975 936.400
467.363 894.600
466.749 843.200
466.135 781.000
465.521 743.800
464.907 716.400
464.293 690.000
463.680 659.200
463.066 634.000
462.452 601.200
461.838 581.000
461.223 538.400
460.609 503.800
459.996 496.000
459.382 477.400
458.768 450.400
458.154 433.000
457.538 416.400
456.924 404.000
456.309 382.600
455.695 354.200
455.080 358.000
454.466 344.600
453.851 317.600
453.237 320.000
452.622 322.800
452.008 302.600
451.393 291.000
450.778 281.400
450.162 273.000
449.547 272.000
448.932 257.000
448.318 257.200
447.703 252.400
447.088 251.000
446.472 244.600
445.856 241.600
445.241 237.800
444.626 229.000
444.010 240.400
443.395 224.800
442.780 228.800
442.164 218.800
441.548 211.000
440.932 222.200
440.317 222.800
439.700 226.400
439.085 226.600
438.469 215.600
437.853 210.800
437.237 218.000
436.622 209.200
436.005 213.800
435.389 220.800
434.773 208.600
434.156 218.600
433.541 209.000
432.923 209.400
432.308 216.200
431.690 208.400
431.075 205.400
430.457 215.000
429.841 216.000
429.225 199.400
428.608 204.800
427.992 204.000
427.374 210.600
426.757 212.000
426.141 205.200
425.523 213.000
424.907 214.000
424.289 199.800
423.673 200.800
423.055 212.000
422.438 215.400
421.821 213.600
421.203 213.000
420.587 217.200
419.969 218.800
419.351 220.000
418.734 214.600
418.116 215.600
417.498 214.200
416.882 218.400
416.263 214.800
415.645 224.000
415.027 224.600
414.410 227.800
413.792 223.200
413.174 217.600
412.555 223.400
411.938 216.600
411.320 218.400
410.702 221.800
410.083 221.400
409.466 225.400
408.847 222.000
408.229 216.400
407.610 227.000
406.991 220.600
406.373 212.800
405.754 218.200
405.136 219.200
404.518 209.200
403.899 222.200
403.280 217.800
402.661 200.800
402.042 228.400
401.423 212.200
400.804 225.200
400.185 220.600
399.566 219.800
398.947 223.400
398.328 215.200
397.708 208.600
397.089 218.200
396.470 219.400
395.850 211.000
395.231 226.200
394.612 219.000
393.992 215.600
393.373 216.000
392.753 213.000
392.134 214.200
391.514 227.600
390.893 216.800
390.273 225.000
389.654 205.000
389.034 210.400
388.414 213.400
387.794 214.600
387.174 210.600
386.553 211.000
385.933 217.400
385.313 215.600
384.693 204.600
384.072 215.000
383.452 210.800
382.832 208.200
382.212 208.800
381.590 220.800
380.970 208.000
380.350 207.600
379.729 213.200
379.108 210.600
378.487 214.400
377.867 212.000
377.245 212.600
376.625 209.200
376.004 217.000
375.382 220.600
374.762 206.800
374.141 210.600
373.519 223.400
372.898 213.400
372.276 224.800
371.655 217.800
371.033 226.600
370.412 222.200
369.791 219.200
369.169 230.200
368.548 221.200
367.926 209.400
367.305 226.200
366.682 219.800
366.061 234.000
365.439 230.200
364.818 227.600
364.195 235.400
363.573 231.400
362.951 238.200
362.329 237.000
361.707 230.400
361.084 240.800
360.462 232.200
359.840 243.000
359.217 244.400
358.596 237.600
357.973 247.400
357.350 244.800
356.728 246.000
356.105 249.000
355.482 250.200
354.860 235.200
354.237 247.800
353.614 234.800
352.991 240.000
352.369 247.800
351.745 242.400
351.122 264.200
350.499 258.000
349.876 257.800
349.253 263.000
348.629 261.800
348.006 265.600
347.382 273.400
346.760 276.200
346.136 279.000
345.513 288.000
344.889 293.600
344.265 310.400
343.641 329.400
343.018 353.800
342.395 386.800
341.771 425.600
341.147 462.000
340.523 482.000
339.899 514.600
339.275 523.800
338.651 499.400
338.027 489.000
337.403 485.400
336.778 451.200
336.154 455.400
335.530 422.000
334.905 407.000
334.281 381.400
333.657 367.200
333.032 356.800
332.408 338.000
331.783 324.200
331.159 314.200
330.534 298.200
329.909 291.000
329.285 287.600
328.659 265.800
328.034 257.800
327.409 255.800
326.784 249.400
326.159 241.400
325.535 236.200
324.910 239.400
324.283 228.400
323.658 233.600
323.033 216.200
322.408 219.000
321.783 224.800
321.157 224.000
320.531 207.000
319.906 215.200
319.281 216.600
318.654 224.800
318.029 215.000
317.403 213.400
316.777 211.600
316.151 212.200
315.526 216.600
314.899 207.800
314.273 211.400
313.648 209.000
313.021 224.800
312.395 207.400
311.769 207.400
311.142 215.600
310.516 213.800
309.889 211.800
309.263 218.200
308.637 209.600
308.010 209.000
307.384 213.800
306.757 221.400
306.131 222.200
305.503 221.200
304.877 216.600
304.249 218.800
303.623 224.200
302.996 226.400
302.369 223.800
301.742 230.800
301.115 212.600
300.487 227.600
299.861 224.000
299.233 222.400
298.605 223.800
297.979 227.200
297.351 231.400
296.724 237.000
296.096 242.200
295.468 234.200
294.841 239.600
294.213 241.400
293.585 249.800
292.958 250.600
292.330 259.000
291.702 248.000
291.075 262.800
290.446 264.000
289.818 276.800
289.189 274.200
288.562 266.000
287.934 270.800
287.305 276.200
286.677 260.000
286.049 261.600
285.421 264.000
284.792 269.200
284.163 267.200
283.534 271.200
282.907 268.600
282.278 272.600
281.649 275.800
281.020 282.200
280.391 296.000
279.762 299.200
279.133 296.800
278.505 307.800
277.876 313.600
277.247 333.400
276.618 332.200
275.989 357.600
275.359 347.400
274.730 369.400
274.101 390.400
273.471 409.600
272.842 402.000
272.212 416.400
271.583 427.600
270.953 445.200
270.324 444.600
269.694 438.600
269.065 443.600
268.435 427.200
267.805 414.600
267.175 420.400
266.545 413.200
265.916 410.600
265.284 391.800
264.655 388.000
264.025 382.400
263.395 374.800
262.764 344.600
262.134 336.600
261.504 339.000
260.873 322.600
260.243 309.000
259.612 304.400
258.982 280.400
258.352 283.800
257.720 283.000
257.090 272.200
256.459 246.600
255.829 257.200
255.197 237.200
254.566 238.200
253.936 242.200
253.305 230.000
252.673 233.200
252.042 219.600
251.412 225.400
250.780 220.600
250.149 208.400
249.518 199.000
248.886 200.000
248.255 197.400
247.624 203.000
246.992 195.600
246.360 192.200
245.728 197.200
245.097 192.600
244.466 184.000
243.833 176.800
243.202 193.600
242.569 189.200
241.938 187.400
241.305 186.200
240.674 182.800
240.041 182.400
239.410 171.800
238.777 181.200
238.145 179.200
237.512 184.200
236.881 190.800
236.248 176.800
235.616 187.000
234.983 182.400
234.351 173.200
233.718 175.000
233.085 180.200
232.453 179.200
231.820 186.600
231.186 184.600
230.554 182.800
229.921 181.800
229.289 185.800
228.655 182.400
228.022 176.400
227.390 166.000
226.756 177.000
226.123 176.800
225.489 179.200
224.856 182.200
224.223 179.000
223.589 182.800
222.955 171.200
222.323 180.200
221.689 175.800
221.055 173.200
220.421 177.000
219.788 181.200
219.154 166.600
218.520 166.200
217.886 176.800
217.252 175.400
216.618 171.400
215.985 168.400
215.350 176.400
214.716 170.600
214.082 173.600
213.447 170.600
212.813 169.600
212.178 162.200
