834.788 168.200
834.204 166.600
833.621 163.400
833.037 163.600
832.453 166.600
831.870 176.600
831.286 178.600
830.702 176.000
830.118 168.200
829.535 166.200
828.950 170.800
828.367 162.000
827.782 165.000
827.198 173.800
826.615 171.800
826.030 166.800
825.446 170.600
824.861 172.200
824.277 172.400
823.692 164.800
823.109 174.800
822.523 169.200
821.940 165.400
821.354 160.800
820.770 165.800
820.185 166.800
819.601 168.600
819.016 169.400
818.431 176.200
817.846 164.600
817.261 166.200
816.677 162.600
816.091 172.600
815.506 173.600
814.922 164.000
814.336 175.000
813.750 169.400
813.166 167.400
812.580 168.800
811.995 164.800
811.410 160.600
810.824 171.600
810.239 173.800
809.653 167.200
809.068 166.600
808.482 171.800
807.896 181.600
807.310 171.800
806.724 173.000
806.139 165.200
805.553 170.800
804.967 165.600
804.381 169.200
803.795 163.200
803.209 169.800
802.624 169.600
802.037 165.600
801.451 170.600
800.865 175.200
800.278 159.400
799.692 173.400
799.105 171.600
798.519 168.600
797.932 174.800
797.346 168.800
796.759 172.800
796.173 165.400
795.586 166.600
794.999 173.800
794.412 165.200
793.826 165.600
793.239 175.200
792.652 169.400
792.065 171.000
791.478 167.200
790.891 168.200
790.303 159.400
789.716 170.600
789.129 166.600
788.542 174.600
787.955 164.200
787.368 173.000
786.781 170.200
786.192 164.600
785.605 172.800
785.018 174.000
784.430 173.000
783.842 167.600
783.254 167.600
782.667 170.400
782.079 159.800
781.491 168.800
780.903 177.400
780.316 165.000
779.727 162.800
779.139 172.000
778.551 173.600
777.963 168.600
777.375 164.400
776.787 171.200
776.198 164.400
775.610 161.200
775.022 173.800
774.433 173.600
773.845 171.000
773.256 171.000
772.668 180.600
772.079 171.000
771.491 169.400
770.901 164.600
770.313 166.800
769.724 166.600
769.136 163.600
768.546 168.400
767.958 175.800
767.368 171.200
766.780 168.200
766.190 169.200
765.602 163.400
765.012 167.000
764.422 168.400
763.834 175.600
763.244 167.600
762.655 168.200
762.066 167.000
761.476 167.800
760.887 171.200
760.297 173.000
759.707 170.400
759.117 165.400
758.528 173.400
757.938 160.400
757.348 171.000
756.759 164.600
756.169 176.000
755.578 173.000
754.988 176.000
754.398 178.000
753.809 176.200
753.218 176.200
752.628 174.000
752.037 182.400
751.447 170.000
750.858 173.200
750.267 173.600
749.676 184.000
749.086 178.200
748.495 167.400
747.904 179.200
747.314 174.000
746.723 181.600
746.132 180.200
745.541 177.000
744.950 178.400
744.360 168.600
743.769 182.600
743.178 176.800
742.587 179.800
741.996 168.600
741.404 175.000
740.813 176.600
740.222 176.200
739.631 178.000
739.040 184.000
738.449 170.400
737.857 177.200
737.266 174.200
736.674 177.400
736.083 179.800
735.490 177.000
734.899 165.000
734.307 181.400
733.716 182.400
733.124 168.200
732.533 178.200
731.940 177.400
731.348 181.000
730.756 171.800
730.165 175.600
729.572 188.400
728.980 180.600
728.388 176.800
727.796 178.800
727.203 177.600
726.611 182.600
726.019 182.000
725.426 183.000
724.834 186.000
724.242 181.800
723.648 177.600
723.056 181.400
722.464 177.400
721.870 180.400
721.278 183.000
720.685 171.000
720.092 175.200
719.500 185.800
718.906 187.800
718.314 182.000
717.720 175.400
717.127 174.200
716.534 190.600
715.941 188.400
715.347 186.200
714.755 180.000
714.161 179.000
713.568 185.200
712.974 188.800
712.380 191.800
711.787 189.200
711.193 193.200
710.600 189.800
710.006 192.200
709.412 189.200
708.819 180.800
708.224 185.600
707.631 198.400
707.037 200.600
706.443 192.400
705.848 204.600
705.255 211.600
704.660 208.000
704.066 229.000
703.472 199.000
702.878 211.800
702.283 211.200
701.689 208.400
701.095 208.800
700.500 220.400
699.906 202.600
699.311 207.600
698.716 215.800
698.122 217.000
697.527 216.600
696.932 205.600
696.337 223.000
695.742 221.400
695.147 217.600
694.552 227.200
693.957 228.800
693.363 213.400
692.768 226.800
692.173 226.800
691.578 219.000
690.982 233.600
690.387 220.200
689.791 226.400
689.196 224.000
688.601 230.400
688.005 222.200
687.410 232.200
686.814 238.200
686.218 240.000
685.623 246.200
685.027 240.000
684.431 248.600
683.835 250.600
683.239 241.600
682.643 229.400
682.047 248.600
681.451 254.800
680.855 254.600
680.259 258.200
679.663 259.000
679.066 256.200
678.470 256.800
677.874 267.000
677.278 276.000
676.682 268.600
676.084 285.600
675.488 284.800
674.892 278.200
674.296 282.600
673.698 284.000
673.102 280.400
672.505 295.200
671.908 290.400
671.311 278.000
670.715 290.600
670.117 296.600
669.520 293.600
668.924 285.600
668.326 284.400
667.729 282.600
667.132 287.800
666.534 289.400
665.937 286.200
665.339 293.400
664.743 283.800
664.146 282.800
663.548 282.800
662.950 276.000
662.352 263.600
661.755 277.200
661.157 271.600
660.560 278.000
659.961 268.400
659.364 268.200
658.766 272.800
658.168 271.400
657.570 265.600
656.971 255.000
656.374 251.800
655.775 258.600
655.178 251.800
654.579 260.800
653.980 242.000
653.383 253.200
652.784 238.000
652.185 237.800
651.588 248.000
650.989 230.400
650.390 238.200
649.792 233.400
649.193 243.200
648.594 236.600
647.996 235.600
647.397 235.400
646.798 248.200
646.199 241.600
645.599 229.200
645.001 225.600
644.402 240.400
643.803 223.400
643.203 238.600
642.604 228.000
642.006 231.200
641.406 219.400
640.806 226.200
640.207 214.000
639.607 222.600
639.008 213.000
638.408 208.600
637.808 225.800
637.210 218.000
636.610 216.600
636.010 215.000
635.410 218.200
634.810 229.600
634.211 232.800
633.611 212.000
633.011 224.800
632.411 213.800
631.810 218.400
631.210 215.200
630.610 212.800
630.010 204.000
629.410 210.600
628.808 220.000
628.208 216.000
627.608 183.000
627.007 205.200
626.407 206.200
625.807 217.600
625.206 198.200
624.606 210.200
624.004 204.400
623.403 214.400
622.803 198.400
622.202 213.600
621.601 205.400
620.999 198.800
620.399 204.800
619.798 209.400
619.197 202.800
618.596 210.600
617.994 203.400
617.393 201.000
616.792 205.600
616.190 210.200
615.589 204.600
614.988 204.800
614.385 199.600
613.784 198.400
613.183 207.600
612.581 209.600
611.979 209.400
611.378 194.800
610.776 211.000
610.174 190.400
609.572 206.800
608.970 188.600
608.369 208.000
607.766 203.000
607.164 201.400
606.561 205.000
605.960 199.400
605.357 195.600
604.755 193.600
604.152 198.200
603.551 211.000
602.948 204.400
602.346 203.800
601.743 194.400
601.139 200.400
600.537 203.600
599.934 197.800
599.332 198.800
598.729 197.200
598.126 189.600
597.524 194.400
596.920 185.200
596.318 196.200
595.715 199.000
595.111 194.600
594.509 196.200
593.905 185.400
593.301 185.000
592.698 194.400
592.095 188.200
591.492 189.400
590.888 191.400
590.285 188.200
589.681 184.800
589.078 184.200
588.474 182.200
587.870 189.000
587.267 185.200
586.663 180.000
586.059 177.800
585.455 180.400
584.851 171.400
584.247 183.000
583.644 180.600
583.039 191.000
582.435 176.600
581.831 172.600
581.227 184.200
580.622 179.800
580.018 173.000
579.413 177.400
578.809 173.000
578.204 176.800
577.600 179.400
576.995 169.800
576.390 181.200
575.786 175.600
575.181 168.600
574.576 178.800
573.972 179.800
573.367 166.600
572.762 167.400
572.157 170.000
571.552 169.600
570.947 174.400
570.342 170.400
569.737 167.400
569.131 167.400
568.526 177.000
567.921 160.800
567.315 174.400
566.710 176.800
566.105 171.200
565.498 176.600
564.893 179.600
564.288 163.200
563.682 163.000
563.077 166.000
562.470 173.800
561.865 163.600
561.259 169.600
560.654 166.600
560.047 157.200
559.441 165.600
558.835 169.600
558.228 166.000
557.623 163.800
557.017 166.200
556.410 164.400
555.804 161.000
555.198 153.800
554.591 162.200
553.985 165.400
553.379 160.800
552.772 169.600
552.165 163.000
551.558 164.400
550.952 168.000
550.344 167.200
549.738 158.400
549.131 169.200
548.524 163.200
547.918 168.200
547.310 168.600
546.704 161.400
546.096 154.200
545.489 161.200
544.882 162.000
544.274 161.000
543.668 153.000
543.060 158.600
542.453 166.200
541.845 164.400
541.237 166.400
540.630 162.800
540.022 165.600
539.415 168.400
538.807 165.800
538.199 161.600
537.592 163.400
536.984 157.200
536.376 163.200
535.768 164.000
535.160 168.400
534.552 164.200
533.943 158.600
533.336 158.800
532.728 158.600
532.119 154.200
531.510 157.800
530.903 165.000
530.294 159.200
529.686 162.200
529.077 157.800
528.468 165.800
527.859 161.000
527.252 160.400
526.643 161.600
526.034 156.400
525.425 155.400
524.816 162.800
524.207 154.000
523.598 155.200
522.989 158.000
522.380 161.000
521.772 160.000
521.163 169.800
520.553 157.200
519.944 164.600
519.335 162.600
518.725 172.800
518.116 163.800
517.507 149.800
516.897 170.600
516.288 164.000
515.678 160.600
515.069 163.400
514.458 166.000
513.848 160.800
513.238 156.200
512.629 165.500
512.019 167.200
511.409 163.400
510.799 161.800
510.189 169.800
509.579 163.200
508.968 165.800
508.358 159.400
507.748 159.400
507.138 156.600
506.528 162.200
505.918 163.000
505.307 167.000
504.696 160.600
504.086 160.800
503.476 155.600
502.864 171.000
502.254 175.800
501.644 158.000
501.032 165.200
500.421 164.800
499.811 168.600
499.200 173.800
498.589 165.800
497.978 168.400
497.367 174.000
496.755 162.600
496.145 161.200
495.533 171.000
494.922 173.200
494.311 174.000
493.699 165.800
493.088 167.200
492.476 161.600
491.865 170.800
491.253 181.000
490.641 160.400
490.029 167.200
489.418 170.400
488.806 178.600
488.194 178.200
487.582 178.400
486.971 172.600
486.358 172.600
485.747 179.000
485.134 179.000
484.523 173.800
483.910 183.800
483.298 177.600
482.686 180.800
482.073 179.800
481.461 177.000
480.848 188.000
480.235 184.600
479.624 188.400
479.011 182.400
478.398 183.800
477.786 185.800
477.173 184.800
476.560 196.800
475.948 194.800
475.334 197.800
474.721 193.600
474.108 194.000
473.496 193.400
472.882 185.600
472.269 181.200
471.655 187.200
471.043 185.800
470.430 187.200
469.816 189.800
469.202 178.200
468.589 183.200
467.975 181.800
467.363 174.200
466.749 178.800
466.135 175.000
465.521 179.000
464.907 173.400
464.293 170.000
463.680 164.200
463.066 173.800
462.452 174.000
461.838 173.000
461.223 164.200
460.609 166.200
459.996 162.600
459.382 173.800
458.768 175.000
458.154 170.200
457.538 169.800
456.924 167.600
456.309 167.200
455.695 169.400
455.080 170.000
454.466 170.400
453.851 161.000
453.237 168.200
452.622 160.600
452.008 176.600
451.393 168.600
450.778 166.000
450.162 173.800
449.547 164.800
448.932 166.800
448.318 167.800
447.703 173.400
447.088 178.000
446.472 168.400
445.856 159.600
445.241 162.400
444.626 173.000
444.010 168.000
443.395 170.600
442.780 165.800
442.164 172.800
441.548 176.000
440.932 169.000
440.317 168.400
439.700 174.800
439.085 171.200
438.469 170.400
437.853 167.400
437.237 174.200
436.622 179.000
436.005 180.600
435.389 180.800
434.773 178.400
434.156 170.600
433.541 177.600
432.923 184.200
432.308 176.800
431.690 170.200
431.075 185.000
430.457 182.200
429.841 188.400
429.225 189.200
428.608 179.000
427.992 185.400
427.374 186.000
426.757 191.200
426.141 191.200
425.523 192.600
424.907 189.400
424.289 195.600
423.673 189.400
423.055 201.800
422.438 191.400
421.821 204.000
421.203 196.200
420.587 209.600
419.969 196.800
419.351 194.600
418.734 210.800
418.116 200.600
417.498 211.000
416.882 196.600
416.263 200.800
415.645 207.600
415.027 202.200
414.410 203.200
413.792 204.200
413.174 203.400
412.555 203.400
411.938 197.000
411.320 206.600
410.702 205.200
410.083 210.800
409.466 208.800
408.847 205.200
408.229 205.600
407.610 204.400
406.991 194.800
406.373 207.800
405.754 205.600
405.136 199.200
404.518 207.200
403.899 207.800
403.280 211.400
402.661 209.000
402.042 203.600
401.423 208.400
400.804 206.600
400.185 207.400
399.566 205.000
398.947 199.400
398.328 212.200
397.708 208.400
397.089 204.000
396.470 200.800
395.850 201.200
395.231 201.600
394.612 203.400
393.992 208.600
393.373 199.600
392.753 206.000
392.134 201.600
391.514 197.200
390.893 200.200
390.273 199.200
389.654 199.200
389.034 191.400
388.414 203.400
387.794 196.800
387.174 203.000
386.553 196.200
385.933 204.000
385.313 199.200
384.693 199.400
384.072 210.400
383.452 201.000
382.832 210.200
382.212 203.200
381.590 216.600
380.970 214.400
380.350 225.000
379.729 225.400
379.108 237.200
378.487 241.000
377.867 251.800
377.245 256.800
376.625 273.800
376.004 272.800
375.382 278.800
374.762 286.200
374.141 299.800
373.519 313.200
372.898 324.200
372.276 327.800
371.655 354.600
371.033 352.800
370.412 389.400
369.791 394.600
369.169 394.000
368.548 417.000
367.926 433.600
367.305 438.600
366.682 471.600
366.061 485.600
365.439 512.600
364.818 549.000
364.195 555.200
363.573 593.600
362.951 620.400
362.329 644.800
361.707 705.600
361.084 722.600
360.462 755.200
359.840 799.000
359.217 811.600
358.596 828.600
357.973 852.200
357.350 816.000
356.728 828.200
356.105 830.600
355.482 823.800
354.860 811.400
354.237 798.800
353.614 786.000
352.991 777.800
352.369 795.000
351.745 792.000
351.122 804.800
350.499 824.200
349.876 842.200
349.253 852.800
348.629 877.400
348.006 906.400
347.382 957.800
346.760 984.400
346.136 1019.400
345.513 1083.200
344.889 1132.400
344.265 1251.000
343.641 1366.200
343.018 1552.800
342.395 1741.400
341.771 1963.000
341.147 2219.800
340.523 2460.000
339.899 2639.200
339.275 2763.600
338.651 2806.600
338.027 2821.400
337.403 2793.800
336.778 2675.400
336.154 2578.800
335.530 2393.000
334.905 2222.600
334.281 2067.000
333.657 1907.800
333.032 1771.800
332.408 1604.800
331.783 1461.600
331.159 1319.600
330.534 1209.600
329.909 1122.800
329.285 1030.600
328.659 944.200
328.034 886.800
327.409 806.000
326.784 771.000
326.159 705.400
325.535 658.600
324.910 624.600
324.283 586.200
323.658 555.200
323.033 543.000
322.408 500.400
321.783 467.200
321.157 470.200
320.531 449.400
319.906 425.600
319.281 438.000
318.654 433.200
318.029 425.600
317.403 420.000
316.777 417.800
316.151 409.200
315.526 419.400
314.899 408.200
314.273 417.800
313.648 422.600
313.021 422.200
312.395 423.600
311.769 422.400
311.142 411.000
310.516 423.000
309.889 417.000
309.263 440.000
308.637 425.600
308.010 418.000
307.384 429.600
306.757 427.600
306.131 428.800
305.503 410.000
304.877 428.600
304.249 436.000
303.623 418.400
302.996 432.400
302.369 433.000
301.742 436.200
301.115 445.400
300.487 443.000
299.861 460.000
299.233 460.800
298.605 462.600
297.979 455.800
297.351 465.600
296.724 484.600
296.096 496.000
295.468 489.400
294.841 503.600
294.213 526.200
293.585 527.000
292.958 545.200
292.330 569.400
291.702 592.400
291.075 591.600
290.446 613.800
289.818 612.200
289.189 605.000
288.562 622.200
287.934 602.600
287.305 596.200
286.677 582.600
286.049 564.800
285.421 552.600
284.792 543.200
284.163 529.200
283.534 513.800
282.907 483.000
282.278 484.200
281.649 480.200
281.020 472.800
280.391 453.600
279.762 437.800
279.133 443.600
278.505 409.200
277.876 416.000
277.247 408.600
276.618 406.800
275.989 375.000
275.359 375.800
274.730 372.800
274.101 377.200
273.471 352.200
272.842 348.600
272.212 350.800
271.583 345.400
270.953 335.800
270.324 339.400
269.694 333.000
269.065 351.400
268.435 332.000
267.805 334.800
267.175 332.800
266.545 318.400
265.916 335.800
265.284 323.800
264.655 317.800
264.025 337.800
263.395 332.400
262.764 325.600
262.134 333.600
261.504 340.200
260.873 333.600
260.243 328.200
259.612 340.200
258.982 339.000
258.352 330.000
257.720 339.000
257.090 347.800
256.459 337.000
255.829 338.800
255.197 333.400
254.566 343.000
253.936 349.000
253.305 349.600
252.673 345.600
252.042 345.600
251.412 344.800
250.780 318.000
250.149 329.000
249.518 307.600
248.886 303.000
248.255 291.200
247.624 282.400
246.992 287.000
246.360 275.000
245.728 275.400
245.097 263.000
244.466 259.800
243.833 253.600
243.202 245.200
242.569 231.000
241.938 232.400
241.305 223.400
240.674 217.600
240.041 223.400
239.410 228.000
238.777 221.200
238.145 209.000
237.512 209.800
236.881 224.800
236.248 205.400
235.616 193.600
234.983 200.200
234.351 209.400
233.718 199.600
233.085 202.800
232.453 192.600
231.820 193.200
231.186 185.600
230.554 180.800
229.921 188.400
229.289 183.200
228.655 185.800
228.022 181.800
227.390 174.000
226.756 179.000
226.123 185.000
225.489 188.400
224.856 175.200
224.223 183.200
223.589 187.800
222.955 180.400
222.323 182.000
221.689 178.200
221.055 167.200
220.421 180.600
219.788 179.800
219.154 181.800
218.520 165.200
217.886 171.600
217.252 173.400
216.618 165.600
215.985 172.600
215.350 175.200
214.716 175.000
214.082 166.000
213.447 172.400
212.813 156.600
212.178 157.600
