834.788 304.200
834.204 305.000
833.621 313.800
833.037 310.200
832.453 314.800
831.870 312.000
831.286 317.000
830.702 310.000
830.118 308.800
829.535 314.800
828.950 311.800
828.367 312.200
827.782 317.600
827.198 320.600
826.615 309.000
826.030 305.600
825.446 311.600
824.861 316.700
824.277 315.800
823.692 308.400
823.109 308.800
822.523 306.600
821.940 303.000
821.354 300.600
820.770 309.400
820.185 305.600
819.601 312.000
819.016 296.400
818.431 308.600
817.846 297.800
817.261 305.400
816.677 303.600
816.091 306.000
815.506 312.200
814.922 311.800
814.336 303.600
813.750 308.800
813.166 307.600
812.580 322.000
811.995 313.200
811.410 309.800
810.824 305.400
810.239 305.600
809.653 299.200
809.068 303.200
808.482 305.000
807.896 303.600
807.310 301.800
806.724 306.600
806.139 301.400
805.553 304.200
804.967 313.800
804.381 307.400
803.795 302.200
803.209 308.200
802.624 303.600
802.037 302.800
801.451 307.200
800.865 298.200
800.278 304.400
799.692 306.600
799.105 299.600
798.519 308.200
797.932 305.200
797.346 314.000
796.759 299.200
796.173 303.600
795.586 312.600
794.999 301.000
794.412 304.800
793.826 311.600
793.239 303.600
792.652 298.400
792.065 305.000
791.478 307.000
790.891 304.800
790.303 314.000
789.716 300.200
789.129 307.400
788.542 310.000
787.955 302.200
787.368 306.200
786.781 302.000
786.192 303.600
785.605 296.800
785.018 301.600
784.430 304.400
783.842 310.000
783.254 291.400
782.667 289.200
782.079 294.000
781.491 303.400
780.903 310.600
780.316 298.000
779.727 294.600
779.139 294.000
778.551 310.000
777.963 303.000
777.375 312.400
776.787 304.600
776.198 300.200
775.610 305.200
775.022 299.200
774.433 302.400
773.845 303.000
773.256 307.400
772.668 305.800
772.079 303.200
771.491 302.600
770.901 297.400
770.313 309.800
769.724 297.000
769.136 301.000
768.546 305.400
767.958 293.400
767.368 305.400
766.780 301.800
766.190 291.400
765.602 297.000
765.012 309.400
764.422 305.000
763.834 294.800
763.244 299.600
762.655 308.000
762.066 300.200
761.476 309.800
760.887 307.200
760.297 313.000
759.707 305.200
759.117 302.200
758.528 302.200
757.938 301.800
757.348 301.800
756.759 302.000
756.169 308.200
755.578 292.600
754.988 294.600
754.398 300.400
753.809 286.600
753.218 284.200
752.628 316.200
752.037 309.600
751.447 302.800
750.858 295.400
750.267 306.000
749.676 304.400
749.086 304.000
748.495 297.000
747.904 301.400
747.314 305.600
746.723 299.800
746.132 297.800
745.541 307.000
744.950 304.200
744.360 307.400
743.769 294.600
743.178 303.000
742.587 295.200
741.996 298.000
741.404 290.600
740.813 308.200
740.222 313.600
739.631 297.600
739.040 297.200
738.449 311.000
737.857 299.600
737.266 303.000
736.674 309.400
736.083 297.800
735.490 295.200
734.899 305.200
734.307 310.000
733.716 299.400
733.124 301.400
732.533 304.000
731.940 301.800
731.348 303.400
730.756 309.800
730.165 299.400
729.572 301.000
728.980 303.800
728.388 313.400
727.796 301.000
727.203 294.400
726.611 305.600
726.019 309.200
725.426 305.000
724.834 299.800
724.242 298.400
723.648 304.200
723.056 307.400
722.464 302.200
721.870 305.200
721.278 301.000
720.685 302.200
720.092 302.200
719.500 302.000
718.906 305.800
718.314 304.000
717.720 300.000
717.127 296.800
716.534 307.200
715.941 295.200
715.347 305.400
714.755 312.200
714.161 313.600
713.568 294.000
712.974 307.200
712.380 310.600
711.787 308.000
711.193 304.400
710.600 301.600
710.006 307.200
709.412 306.800
708.819 309.000
708.224 306.200
707.631 306.800
707.037 308.800
706.443 311.200
705.848 313.000
705.255 317.800
704.660 314.600
704.066 323.200
703.472 312.400
702.878 318.400
702.283 324.600
701.689 315.400
701.095 329.000
700.500 323.200
699.906 319.200
699.311 316.600
698.716 322.000
698.122 315.800
697.527 322.200
696.932 332.200
696.337 327.200
695.742 320.600
695.147 331.600
694.552 333.400
693.957 318.800
693.363 326.800
692.768 330.200
692.173 322.200
691.578 326.800
690.982 327.400
690.387 323.000
689.791 329.200
689.196 330.200
688.601 332.000
688.005 329.200
687.410 326.200
686.814 329.600
686.218 331.600
685.623 321.400
685.027 333.800
684.431 316.200
683.835 341.400
683.239 334.000
682.643 328.800
682.047 345.400
681.451 326.800
680.855 342.800
680.259 331.600
679.663 332.200
679.066 349.600
678.470 339.400
677.874 348.800
677.278 356.000
676.682 343.200
676.084 339.600
675.488 353.400
674.892 350.000
674.296 356.200
673.698 365.800
673.102 357.200
672.505 366.600
671.908 367.200
671.311 348.600
670.715 365.400
670.117 369.200
669.520 364.800
668.924 374.400
668.326 359.200
667.729 363.000
667.132 371.400
666.534 368.800
665.937 367.200
665.339 356.000
664.743 358.000
664.146 353.000
663.548 352.600
662.950 348.400
662.352 343.800
661.755 343.400
661.157 350.600
660.560 344.000
659.961 338.600
659.364 331.000
658.766 341.000
658.168 342.400
657.570 334.200
656.971 326.600
656.374 344.000
655.775 329.400
655.178 340.600
654.579 334.800
653.980 311.600
653.383 329.600
652.784 326.800
652.185 317.800
651.588 321.200
650.989 325.200
650.390 321.800
649.792 318.000
649.193 329.400
648.594 320.200
647.996 325.200
647.397 311.800
646.798 332.400
646.199 320.600
645.599 327.800
645.001 327.800
644.402 330.200
643.803 320.200
643.203 309.600
642.604 322.400
642.006 315.600
641.406 320.000
640.806 312.400
640.207 325.200
639.607 319.400
639.008 320.800
638.408 316.400
637.808 318.200
637.210 316.000
636.610 314.200
636.010 311.000
635.410 307.200
634.810 307.800
634.211 304.600
633.611 311.600
633.011 309.600
632.411 301.400
631.810 314.400
631.210 300.600
630.610 303.000
630.010 310.600
629.410 314.600
628.808 312.400
628.208 304.200
627.608 260.200
627.007 313.600
626.407 303.800
625.807 305.400
625.206 306.400
624.606 305.000
624.004 309.600
623.403 306.000
622.803 312.800
622.202 307.000
621.601 302.400
620.999 309.000
620.399 305.800
619.798 306.600
619.197 301.200
618.596 311.600
617.994 314.600
617.393 304.600
616.792 301.000
616.190 301.600
615.589 308.600
614.988 293.600
614.385 293.200
613.784 300.400
613.183 293.400
612.581 289.800
611.979 294.600
611.378 297.000
610.776 302.400
610.174 299.400
609.572 291.800
608.970 299.600
608.369 296.400
607.766 295.600
607.164 300.400
606.561 287.800
605.960 285.200
605.357 297.600
604.755 307.400
604.152 307.600
603.551 295.800
602.948 293.000
602.346 301.200
601.743 298.600
601.139 297.600
600.537 295.600
599.934 292.000
599.332 294.000
598.729 291.200
598.126 302.000
597.524 298.400
596.920 301.000
596.318 295.800
595.715 288.400
595.111 294.800
594.509 295.600
593.905 293.400
593.301 291.400
592.698 292.200
592.095 290.800
591.492 286.200
590.888 292.400
590.285 288.600
589.681 297.200
589.078 302.800
588.474 282.400
587.870 284.000
587.267 295.400
586.663 292.400
586.059 282.600
585.455 287.200
584.851 291.600
584.247 285.200
583.644 275.400
583.039 291.200
582.435 295.800
581.831 279.800
581.227 296.200
580.622 285.200
580.018 287.000
579.413 291.400
578.809 288.600
578.204 293.600
577.600 279.200
576.995 288.000
576.390 281.200
575.786 289.400
575.181 291.000
574.576 269.600
573.972 279.200
573.367 282.600
572.762 269.200
572.157 283.000
571.552 282.400
570.947 277.200
570.342 281.000
569.737 281.800
569.131 282.000
568.526 278.400
567.921 279.400
567.315 278.400
566.710 269.000
566.105 278.600
565.498 285.800
564.893 276.600
564.288 266.400
563.682 276.000
563.077 271.600
562.470 274.400
561.865 276.200
561.259 277.600
560.654 277.600
560.047 262.400
559.441 270.800
558.835 276.200
558.228 275.400
557.623 273.400
557.017 277.200
556.410 276.800
555.804 275.400
555.198 269.000
554.591 278.400
553.985 283.000
553.379 274.800
552.772 278.600
552.165 270.600
551.558 276.400
550.952 277.600
550.344 274.200
549.738 273.400
549.131 278.200
548.524 282.000
547.918 282.200
547.310 273.800
546.704 278.800
546.096 283.600
545.489 275.400
544.882 274.200
544.274 276.600
543.668 277.600
543.060 271.400
542.453 276.600
541.845 267.200
541.237 275.600
540.630 275.800
540.022 281.400
539.415 267.400
538.807 275.200
538.199 276.200
537.592 274.400
536.984 280.600
536.376 273.400
535.768 267.800
535.160 277.000
534.552 272.400
533.943 276.200
533.336 271.200
532.728 272.400
532.119 278.400
531.510 286.600
530.903 282.200
530.294 280.000
529.686 267.800
529.077 281.200
528.468 261.400
527.859 268.600
527.252 277.600
526.643 282.600
526.034 272.600
525.425 267.200
524.816 272.800
524.207 278.200
523.598 289.800
522.989 277.800
522.380 263.600
521.772 275.400
521.163 281.400
520.553 272.400
519.944 278.000
519.335 274.600
518.725 278.200
518.116 274.200
517.507 260.400
516.897 270.600
516.288 281.200
515.678 273.600
515.069 287.200
514.458 274.400
513.848 274.200
513.238 275.600
512.629 280.100
512.019 277.800
511.409 279.200
510.799 273.200
510.189 267.800
509.579 275.800
508.968 273.000
508.358 273.600
507.748 269.800
507.138 266.600
506.528 280.600
505.918 280.600
505.307 280.200
504.696 285.400
504.086 275.800
503.476 285.800
502.864 288.200
502.254 283.800
501.644 293.000
501.032 281.600
500.421 285.000
499.811 285.000
499.200 289.600
498.589 279.800
497.978 285.000
497.367 296.400
496.755 283.800
496.145 291.600
495.533 291.800
494.922 293.600
494.311 287.000
493.699 281.000
493.088 282.200
492.476 299.200
491.865 296.800
491.253 293.800
490.641 305.600
490.029 300.200
489.418 315.000
488.806 299.800
488.194 300.800
487.582 307.200
486.971 330.200
486.358 322.600
485.747 322.200
485.134 325.800
484.523 338.600
483.910 343.000
483.298 352.200
482.686 345.800
482.073 349.400
481.461 362.400
480.848 388.000
480.235 374.200
479.624 391.200
479.011 415.400
478.398 422.200
477.786 448.600
477.173 455.000
476.560 473.800
475.948 483.200
475.334 514.000
474.721 529.200
474.108 545.600
473.496 586.000
472.882 586.000
472.269 607.000
471.655 622.000
471.043 619.400
470.430 627.400
469.816 624.200
469.202 612.000
468.589 610.600
467.975 576.600
467.363 557.600
466.749 533.600
466.135 517.600
465.521 503.000
464.907 483.600
464.293 456.000
463.680 458.400
463.066 437.000
462.452 425.400
461.838 418.800
461.223 407.800
460.609 384.800
459.996 393.800
459.382 386.600
458.768 381.800
458.154 370.800
457.538 371.200
456.924 354.200
456.309 353.600
455.695 350.800
455.080 341.800
454.466 345.800
453.851 336.400
453.237 334.800
452.622 321.200
452.008 313.800
451.393 328.400
450.778 322.000
450.162 309.200
449.547 317.600
448.932 300.000
448.318 311.000
447.703 307.200
447.088 305.000
446.472 304.200
445.856 303.600
445.241 290.800
444.626 301.200
444.010 299.800
443.395 296.800
442.780 292.400
442.164 292.400
441.548 292.200
440.932 287.400
440.317 276.800
439.700 285.600
439.085 293.800
438.469 273.400
437.853 287.600
437.237 277.800
436.622 277.000
436.005 275.600
435.389 285.000
434.773 289.600
434.156 279.600
433.541 280.800
432.923 286.600
432.308 295.000
431.690 291.000
431.075 278.800
430.457 289.200
429.841 278.800
429.225 276.600
428.608 289.000
427.992 283.400
427.374 289.600
426.757 281.000
426.141 279.000
425.523 286.800
424.907 278.800
424.289 277.000
423.673 271.600
423.055 280.000
422.438 290.800
421.821 294.800
421.203 296.600
420.587 289.800
419.969 282.600
419.351 278.200
418.734 297.800
418.116 293.000
417.498 286.200
416.882 298.600
416.263 290.600
415.645 283.600
415.027 292.400
414.410 295.400
413.792 291.800
413.174 297.800
412.555 293.200
411.938 304.200
411.320 293.600
410.702 292.400
410.083 289.000
409.466 296.200
408.847 295.800
408.229 303.000
407.610 290.200
406.991 291.400
406.373 295.800
405.754 288.000
405.136 294.800
404.518 297.400
403.899 293.800
403.280 311.000
402.661 307.800
402.042 303.000
401.423 293.800
400.804 302.000
400.185 291.400
399.566 293.600
398.947 293.400
398.328 299.400
397.708 300.800
397.089 304.000
396.470 283.400
395.850 295.400
395.231 291.400
394.612 304.200
393.992 292.600
393.373 285.600
392.753 308.400
392.134 297.800
391.514 291.000
390.893 305.400
390.273 290.400
389.654 287.200
389.034 276.200
388.414 291.600
387.794 295.800
387.174 295.600
386.553 293.200
385.933 297.600
385.313 300.400
384.693 306.000
384.072 301.200
383.452 298.400
382.832 294.000
382.212 300.000
381.590 291.800
380.970 303.200
380.350 303.400
379.729 311.000
379.108 309.000
378.487 314.800
377.867 327.600
377.245 321.800
376.625 332.200
376.004 325.400
375.382 347.200
374.762 350.600
374.141 357.600
373.519 354.400
372.898 359.400
372.276 372.400
371.655 382.200
371.033 353.400
370.412 381.200
369.791 381.400
369.169 404.200
368.548 388.600
367.926 391.200
367.305 401.400
366.682 403.400
366.061 407.400
365.439 414.200
364.818 420.800
364.195 415.000
363.573 434.600
362.951 430.600
362.329 443.200
361.707 451.200
361.084 473.400
360.462 468.000
359.840 464.600
359.217 501.200
358.596 499.800
357.973 513.800
357.350 524.800
356.728 549.200
356.105 552.000
355.482 552.400
354.860 553.800
354.237 578.400
353.614 563.600
352.991 569.400
352.369 567.400
351.745 604.000
351.122 597.600
350.499 621.200
349.876 648.800
349.253 655.600
348.629 671.000
348.006 670.800
347.382 699.800
346.760 716.600
346.136 724.000
345.513 749.400
344.889 773.400
344.265 791.400
343.641 826.400
343.018 920.000
342.395 1040.200
341.771 1161.200
341.147 1347.400
340.523 1566.600
339.899 1853.400
339.275 2059.400
338.651 2167.400
338.027 2050.000
337.403 1900.200
336.778 1731.200
336.154 1564.600
335.530 1470.400
334.905 1369.400
334.281 1302.800
333.657 1211.200
333.032 1149.800
332.408 1085.000
331.783 1019.400
331.159 972.200
330.534 919.200
329.909 849.600
329.285 817.800
328.659 765.400
328.034 742.400
327.409 699.000
326.784 680.200
326.159 651.800
325.535 626.600
324.910 592.200
324.283 564.600
323.658 569.200
323.033 532.800
322.408 527.800
321.783 514.200
321.157 487.000
320.531 494.200
319.906 459.200
319.281 453.000
318.654 462.200
318.029 448.600
317.403 445.200
316.777 460.200
316.151 444.400
315.526 441.000
314.899 443.600
314.273 452.800
313.648 440.000
313.021 431.600
312.395 436.200
311.769 433.800
311.142 419.400
310.516 421.200
309.889 426.800
309.263 429.200
308.637 424.000
308.010 432.400
307.384 429.600
306.757 428.200
306.131 408.600
305.503 419.400
304.877 403.400
304.249 415.000
303.623 409.600
302.996 422.000
302.369 417.600
301.742 420.000
301.115 431.600
300.487 417.200
299.861 417.800
299.233 435.000
298.605 430.600
297.979 445.200
297.351 428.000
296.724 445.400
296.096 441.800
295.468 453.400
294.841 452.600
294.213 475.200
293.585 483.800
292.958 501.600
292.330 509.200
291.702 524.000
291.075 517.000
290.446 553.600
289.818 583.600
289.189 619.200
288.562 609.800
287.934 598.800
287.305 594.000
286.677 573.200
286.049 565.400
285.421 539.200
284.792 526.400
284.163 481.800
283.534 461.000
282.907 454.200
282.278 456.400
281.649 459.600
281.020 436.200
280.391 442.400
279.762 446.800
279.133 418.800
278.505 420.800
277.876 419.400
277.247 434.000
276.618 410.000
275.989 399.400
275.359 414.000
274.730 405.000
274.101 408.400
273.471 397.000
272.842 395.600
272.212 402.400
271.583 401.800
270.953 386.800
270.324 393.800
269.694 386.200
269.065 389.800
268.435 378.400
267.805 390.200
267.175 393.400
266.545 376.200
265.916 375.200
265.284 382.200
264.655 380.200
264.025 379.000
263.395 363.800
262.764 385.800
262.134 382.800
261.504 382.800
260.873 389.200
260.243 371.200
259.612 373.800
258.982 374.800
258.352 368.800
257.720 370.200
257.090 385.800
256.459 376.600
255.829 372.600
255.197 381.400
254.566 383.400
253.936 362.600
253.305 368.200
252.673 373.200
252.042 360.800
251.412 363.200
250.780 359.600
250.149 347.600
249.518 351.200
248.886 362.200
248.255 344.800
247.624 338.400
246.992 339.800
246.360 342.600
245.728 334.200
245.097 336.800
244.466 316.600
243.833 322.400
243.202 311.800
242.569 323.800
241.938 304.400
241.305 297.400
240.674 303.400
240.041 306.800
239.410 295.600
238.777 291.200
238.145 294.000
237.512 287.200
236.881 285.400
236.248 290.800
235.616 294.600
234.983 292.800
234.351 275.800
233.718 276.000
233.085 280.200
232.453 268.400
231.820 273.000
231.186 273.800
230.554 264.800
229.921 271.000
229.289 262.400
228.655 264.800
228.022 259.800
227.390 268.200
226.756 265.200
226.123 259.600
225.489 272.200
224.856 261.200
224.223 263.400
223.589 261.000
222.955 258.200
222.323 263.400
221.689 259.800
221.055 264.400
220.421 261.600
219.788 251.600
219.154 256.400
218.520 255.400
217.886 260.600
217.252 242.800
216.618 250.400
215.985 244.400
215.350 249.800
214.716 248.400
214.082 244.600
213.447 246.000
212.813 244.800
212.178 238.200
