834.788 225.000
834.204 222.800
833.621 218.200
833.037 218.800
832.453 216.600
831.870 206.400
831.286 219.800
830.702 225.400
830.118 215.200
829.535 228.800
828.950 226.800
828.367 226.000
827.782 224.200
827.198 223.000
826.615 220.600
826.030 227.400
825.446 225.200
824.861 226.100
824.277 223.000
823.692 222.000
823.109 231.600
822.523 230.000
821.940 231.200
821.354 235.200
820.770 231.200
820.185 231.800
819.601 221.400
819.016 230.000
818.431 223.400
817.846 231.000
817.261 223.400
816.677 225.000
816.091 229.800
815.506 225.600
814.922 230.600
814.336 231.600
813.750 232.000
813.166 217.000
812.580 234.600
811.995 216.200
811.410 216.200
810.824 225.800
810.239 227.400
809.653 220.600
809.068 221.800
808.482 230.000
807.896 224.200
807.310 225.000
806.724 225.800
806.139 231.400
805.553 227.600
804.967 227.600
804.381 227.600
803.795 235.200
803.209 226.000
802.624 221.200
802.037 223.000
801.451 218.000
800.865 217.400
800.278 224.200
799.692 237.000
799.105 222.000
798.519 223.200
797.932 224.200
797.346 226.600
796.759 235.400
796.173 222.400
795.586 229.400
794.999 227.600
794.412 227.000
793.826 231.200
793.239 220.000
792.652 226.400
792.065 227.000
791.478 229.000
790.891 224.400
790.303 225.600
789.716 232.600
789.129 226.800
788.542 229.000
787.955 219.400
787.368 221.200
786.781 225.200
786.192 225.600
785.605 223.200
785.018 234.800
784.430 223.000
783.842 235.200
783.254 223.800
782.667 223.800
782.079 224.000
781.491 226.600
780.903 226.200
780.316 235.200
779.727 221.400
779.139 223.200
778.551 224.200
777.963 229.200
777.375 235.600
776.787 241.800
776.198 230.800
775.610 230.800
775.022 231.200
774.433 227.800
773.845 226.800
773.256 241.400
772.668 235.000
772.079 238.200
771.491 239.600
770.901 236.600
770.313 239.400
769.724 235.400
769.136 236.600
768.546 236.400
767.958 244.000
767.368 239.200
766.780 232.200
766.190 243.600
765.602 232.000
765.012 241.400
764.422 245.800
763.834 230.000
763.244 241.000
762.655 246.400
762.066 237.600
761.476 238.600
760.887 235.200
760.297 239.000
759.707 247.200
759.117 237.200
758.528 250.400
757.938 249.200
757.348 249.400
756.759 245.200
756.169 240.200
755.578 239.400
754.988 250.000
754.398 249.000
753.809 232.000
753.218 244.200
752.628 243.200
752.037 249.000
751.447 243.800
750.858 243.400
750.267 245.600
749.676 250.600
749.086 247.000
748.495 245.800
747.904 259.000
747.314 244.400
746.723 247.800
746.132 252.400
745.541 255.000
744.950 253.400
744.360 260.200
743.769 250.400
743.178 246.200
742.587 238.400
741.996 243.400
741.404 254.400
740.813 262.000
740.222 256.800
739.631 264.400
739.040 265.800
738.449 247.800
737.857 257.600
737.266 248.000
736.674 256.800
736.083 240.200
735.490 253.600
734.899 250.200
734.307 259.600
733.716 253.400
733.124 262.200
732.533 259.600
731.940 252.400
731.348 251.200
730.756 256.600
730.165 250.800
729.572 255.800
728.980 246.000
728.388 254.800
727.796 253.400
727.203 255.000
726.611 256.000
726.019 261.000
725.426 260.400
724.834 250.200
724.242 255.400
723.648 262.200
723.056 263.000
722.464 258.200
721.870 259.000
721.278 273.800
720.685 261.000
720.092 252.400
719.500 271.600
718.906 263.000
718.314 265.800
717.720 271.800
717.127 281.000
716.534 271.000
715.941 265.200
715.347 282.200
714.755 269.400
714.161 282.400
713.568 273.400
712.974 283.000
712.380 287.200
711.787 272.600
711.193 286.800
710.600 294.200
710.006 311.200
709.412 286.000
708.819 293.000
708.224 298.600
707.631 311.800
707.037 299.000
706.443 314.000
705.848 310.000
705.255 319.400
704.660 317.400
704.066 324.600
703.472 320.200
702.878 339.200
702.283 344.400
701.689 346.600
701.095 340.200
700.500 349.000
699.906 343.800
699.311 342.800
698.716 342.200
698.122 347.800
697.527 359.400
696.932 356.600
696.337 355.800
695.742 363.000
695.147 347.000
694.552 350.600
693.957 362.600
693.363 365.400
692.768 360.600
692.173 367.800
691.578 360.800
690.982 369.600
690.387 371.800
689.791 369.600
689.196 357.400
688.601 371.600
688.005 379.000
687.410 378.000
686.814 366.400
686.218 370.800
685.623 379.400
685.027 392.000
684.431 387.200
683.835 380.400
683.239 385.400
682.643 386.000
682.047 396.200
681.451 406.000
680.855 401.000
680.259 406.800
679.663 405.600
679.066 431.000
678.470 433.200
677.874 426.600
677.278 440.200
676.682 462.000
676.084 455.600
675.488 474.000
674.892 489.800
674.296 480.600
673.698 498.000
673.102 499.000
672.505 499.200
671.908 486.800
671.311 477.000
670.715 501.200
670.117 498.000
669.520 491.600
668.924 495.800
668.326 479.600
667.729 468.400
667.132 456.400
666.534 458.200
665.937 453.200
665.339 455.400
664.743 436.000
664.146 430.600
663.548 432.000
662.950 414.800
662.352 420.800
661.755 400.800
661.157 400.600
660.560 392.200
659.961 391.400
659.364 379.600
658.766 381.000
658.168 380.200
657.570 362.200
656.971 379.800
656.374 377.800
655.775 359.400
655.178 352.000
654.579 350.800
653.980 358.000
653.383 369.200
652.784 358.000
652.185 342.600
651.588 362.200
650.989 353.200
650.390 337.000
649.792 344.600
649.193 351.600
648.594 350.200
647.996 349.000
647.397 347.000
646.798 345.600
646.199 347.400
645.599 345.800
645.001 344.400
644.402 348.000
643.803 341.800
643.203 348.400
642.604 334.800
642.006 332.400
641.406 332.000
640.806 337.400
640.207 349.200
639.607 343.800
639.008 342.600
638.408 315.000
637.808 327.200
637.210 324.800
636.610 319.000
636.010 331.800
635.410 320.600
634.810 324.800
634.211 320.600
633.611 318.200
633.011 317.000
632.411 318.000
631.810 323.600
631.210 321.400
630.610 303.600
630.010 325.800
629.410 322.200
628.808 319.800
628.208 317.600
627.608 292.800
627.007 323.800
626.407 312.400
625.807 311.800
625.206 322.200
624.606 313.200
624.004 317.800
623.403 325.200
622.803 322.800
622.202 324.600
621.601 319.400
620.999 323.600
620.399 324.600
619.798 317.200
619.197 313.800
618.596 317.200
617.994 319.800
617.393 309.400
616.792 302.600
616.190 309.800
615.589 311.800
614.988 312.400
614.385 315.600
613.784 301.600
613.183 313.000
612.581 322.200
611.979 301.800
611.378 307.200
610.776 317.800
610.174 298.400
609.572 287.200
608.970 316.600
608.369 299.000
607.766 299.000
607.164 305.400
606.561 311.400
605.960 306.800
605.357 295.200
604.755 312.000
604.152 302.800
603.551 306.200
602.948 306.000
602.346 304.800
601.743 296.800
601.139 313.400
600.537 296.800
599.934 299.200
599.332 304.200
598.729 290.600
598.126 302.600
597.524 284.000
596.920 287.000
596.318 289.600
595.715 294.800
595.111 295.600
594.509 288.000
593.905 293.200
593.301 288.000
592.698 287.200
592.095 281.800
591.492 277.800
590.888 295.400
590.285 275.800
589.681 287.000
589.078 269.400
588.474 276.600
587.870 270.400
587.267 281.000
586.663 268.800
586.059 278.800
585.455 262.000
584.851 277.800
584.247 280.000
583.644 269.200
583.039 263.800
582.435 263.000
581.831 266.800
581.227 270.000
580.622 260.400
580.018 268.800
579.413 265.200
578.809 255.000
578.204 266.400
577.600 272.600
576.995 262.400
576.390 276.000
575.786 264.400
575.181 252.400
574.576 248.200
573.972 256.800
573.367 269.200
572.762 255.000
572.157 248.600
571.552 249.600
570.947 251.200
570.342 254.400
569.737 256.000
569.131 264.200
568.526 264.400
567.921 260.800
567.315 254.800
566.710 248.400
566.105 264.600
565.498 251.200
564.893 245.200
564.288 255.600
563.682 248.800
563.077 242.400
562.470 247.800
561.865 234.400
561.259 243.600
560.654 244.400
560.047 250.400
559.441 247.000
558.835 249.800
558.228 242.000
557.623 248.400
557.017 235.600
556.410 236.000
555.804 249.000
555.198 253.800
554.591 239.000
553.985 250.800
553.379 248.400
552.772 254.800
552.165 247.000
551.558 247.800
550.952 251.400
550.344 244.800
549.738 242.600
549.131 244.600
548.524 245.000
547.918 246.600
547.310 238.000
546.704 247.800
546.096 246.400
545.489 248.800
544.882 243.400
544.274 251.800
543.668 246.800
543.060 247.800
542.453 247.000
541.845 236.000
541.237 243.800
540.630 238.200
540.022 237.400
539.415 240.400
538.807 252.200
538.199 244.800
537.592 244.400
536.984 239.600
536.376 231.600
535.768 239.000
535.160 243.400
534.552 255.200
533.943 243.600
533.336 231.000
532.728 241.200
532.119 241.400
531.510 238.000
530.903 236.400
530.294 235.200
529.686 230.600
529.077 243.600
528.468 231.000
527.859 232.800
527.252 247.600
526.643 241.000
526.034 245.200
525.425 243.000
524.816 243.000
524.207 238.800
523.598 244.800
522.989 235.600
522.380 238.800
521.772 250.000
521.163 239.000
520.553 245.000
519.944 240.600
519.335 253.200
518.725 245.400
518.116 251.000
517.507 257.000
516.897 251.400
516.288 235.400
515.678 243.800
515.069 244.600
514.458 255.400
513.848 229.400
513.238 241.200
512.629 250.900
512.019 253.800
511.409 255.400
510.799 239.200
510.189 243.000
509.579 255.600
508.968 245.800
508.358 244.000
507.748 258.800
507.138 253.600
506.528 249.200
505.918 248.000
505.307 253.200
504.696 264.200
504.086 257.800
503.476 254.400
502.864 261.400
502.254 253.800
501.644 266.000
501.032 263.800
500.421 255.600
499.811 258.400
499.200 262.800
498.589 262.600
497.978 261.200
497.367 263.400
496.755 274.400
496.145 264.800
495.533 268.000
494.922 270.200
494.311 267.400
493.699 262.400
493.088 264.400
492.476 265.400
491.865 272.200
491.253 271.800
490.641 268.000
490.029 262.200
489.418 271.200
488.806 278.400
488.194 261.400
487.582 276.800
486.971 266.800
486.358 275.400
485.747 285.800
485.134 270.600
484.523 271.600
483.910 284.600
483.298 279.400
482.686 287.400
482.073 284.000
481.461 285.200
480.848 283.000
480.235 299.200
479.624 289.800
479.011 287.800
478.398 297.200
477.786 301.000
477.173 300.200
476.560 300.000
475.948 300.200
475.334 296.400
474.721 290.800
474.108 299.400
473.496 293.000
472.882 281.000
472.269 285.200
471.655 286.000
471.043 275.400
470.430 276.600
469.816 284.200
469.202 277.200
468.589 278.400
467.975 279.000
467.363 279.800
466.749 272.600
466.135 264.600
465.521 267.800
464.907 264.200
464.293 279.800
463.680 270.200
463.066 273.200
462.452 276.000
461.838 272.000
461.223 257.600
460.609 266.200
459.996 267.800
459.382 263.400
458.768 267.000
458.154 279.200
457.538 278.200
456.924 263.800
456.309 274.200
455.695 266.400
455.080 261.800
454.466 269.000
453.851 274.600
453.237 272.000
452.622 268.200
452.008 273.400
451.393 268.400
450.778 269.200
450.162 273.400
449.547 276.000
448.932 266.600
448.318 273.800
447.703 271.200
447.088 271.000
446.472 279.600
445.856 272.000
445.241 269.200
444.626 279.600
444.010 272.200
443.395 280.000
442.780 279.600
442.164 278.400
441.548 277.000
440.932 280.800
440.317 283.000
439.700 284.400
439.085 283.400
438.469 287.000
437.853 279.600
437.237 282.000
436.622 288.000
436.005 293.600
435.389 284.400
434.773 289.000
434.156 298.600
433.541 300.000
432.923 295.800
432.308 302.400
431.690 310.800
431.075 301.800
430.457 305.800
429.841 314.200
429.225 317.000
428.608 305.800
427.992 313.000
427.374 316.800
426.757 318.200
426.141 313.600
425.523 333.200
424.907 322.400
424.289 311.200
423.673 305.400
423.055 334.600
422.438 315.600
421.821 330.400
421.203 336.400
420.587 323.800
419.969 324.600
419.351 328.400
418.734 342.200
418.116 328.000
417.498 333.200
416.882 330.400
416.263 348.200
415.645 346.600
415.027 339.600
414.410 339.800
413.792 337.800
413.174 340.800
412.555 321.200
411.938 339.400
411.320 332.000
410.702 332.200
410.083 350.800
409.466 338.000
408.847 335.600
408.229 346.400
407.610 351.400
406.991 348.200
406.373 341.400
405.754 356.000
405.136 338.600
404.518 345.400
403.899 353.400
403.280 346.200
402.661 352.800
402.042 350.800
401.423 354.000
400.804 361.400
400.185 352.200
399.566 346.600
398.947 350.400
398.328 351.800
397.708 335.000
397.089 343.400
396.470 351.000
395.850 344.400
395.231 345.800
394.612 337.200
393.992 348.400
393.373 350.200
392.753 340.600
392.134 343.000
391.514 331.800
390.893 340.200
390.273 350.600
389.654 349.000
389.034 344.600
388.414 342.800
387.794 347.600
387.174 345.000
386.553 347.200
385.933 360.000
385.313 345.800
384.693 359.600
384.072 373.600
383.452 384.200
382.832 379.400
382.212 400.800
381.590 421.400
380.970 434.800
380.350 442.200
379.729 456.000
379.108 465.800
378.487 499.400
377.867 517.200
377.245 539.400
376.625 554.000
376.004 566.600
375.382 597.200
374.762 590.400
374.141 608.400
373.519 632.400
372.898 646.200
372.276 652.800
371.655 678.400
371.033 668.000
370.412 688.800
369.791 697.400
369.169 729.400
368.548 750.600
367.926 743.200
367.305 737.200
366.682 741.800
366.061 764.000
365.439 780.000
364.818 778.000
364.195 792.400
363.573 789.800
362.951 821.800
362.329 830.600
361.707 849.800
361.084 858.200
360.462 881.800
359.840 890.000
359.217 916.000
358.596 955.200
357.973 956.600
357.350 954.200
356.728 1005.400
356.105 1031.400
355.482 1057.400
354.860 1089.200
354.237 1146.000
353.614 1165.600
352.991 1245.800
352.369 1297.400
351.745 1380.200
351.122 1420.000
350.499 1512.800
349.876 1548.400
349.253 1607.200
348.629 1627.200
348.006 1698.400
347.382 1724.200
346.760 1754.400
346.136 1879.800
345.513 1934.400
344.889 2100.400
344.265 2339.400
343.641 2716.200
343.018 3149.200
342.395 3911.600
341.771 4766.600
341.147 5522.200
340.523 6048.400
339.899 6186.800
339.275 6033.200
338.651 5522.800
338.027 4903.800
337.403 4246.400
336.778 3666.400
336.154 3229.600
335.530 2900.000
334.905 2580.000
334.281 2347.400
333.657 2092.000
333.032 1912.600
332.408 1725.800
331.783 1588.000
331.159 1443.600
330.534 1325.600
329.909 1225.000
329.285 1145.800
328.659 1057.400
328.034 997.800
327.409 962.200
326.784 916.400
326.159 858.200
325.535 820.000
324.910 774.000
324.283 768.400
323.658 708.600
323.033 696.600
322.408 694.200
321.783 678.000
321.157 680.000
320.531 657.600
319.906 644.800
319.281 651.000
318.654 677.200
318.029 666.600
317.403 645.000
316.777 653.800
316.151 648.200
315.526 647.000
314.899 649.800
314.273 642.600
313.648 651.600
313.021 657.000
312.395 641.800
311.769 655.600
311.142 631.800
310.516 630.000
309.889 632.800
309.263 645.600
308.637 636.800
308.010 630.000
307.384 645.600
306.757 654.200
306.131 635.800
305.503 616.800
304.877 626.800
304.249 643.800
303.623 635.000
302.996 652.600
302.369 660.600
301.742 654.400
301.115 666.200
300.487 693.000
299.861 712.600
299.233 708.600
298.605 733.600
297.979 756.800
297.351 761.400
296.724 790.600
296.096 821.200
295.468 886.200
294.841 914.600
294.213 945.600
293.585 1031.200
292.958 1079.000
292.330 1144.800
291.702 1241.600
291.075 1329.200
290.446 1346.800
289.818 1381.200
289.189 1371.800
288.562 1343.400
287.934 1298.800
287.305 1185.000
286.677 1132.600
286.049 1035.600
285.421 968.600
284.792 933.600
284.163 861.200
283.534 839.400
282.907 771.000
282.278 758.200
281.649 749.600
281.020 712.200
280.391 716.400
279.762 715.400
279.133 678.800
278.505 669.800
277.876 667.800
277.247 666.600
276.618 642.600
275.989 631.200
275.359 635.400
274.730 617.800
274.101 594.200
273.471 587.800
272.842 586.800
272.212 585.000
271.583 562.200
270.953 548.200
270.324 549.600
269.694 547.000
269.065 532.800
268.435 525.400
267.805 518.200
267.175 525.400
266.545 529.600
265.916 526.000
265.284 529.800
264.655 520.200
264.025 513.200
263.395 504.200
262.764 524.800
262.134 534.000
261.504 528.000
260.873 526.000
260.243 550.200
259.612 530.200
258.982 541.800
258.352 549.200
257.720 561.400
257.090 548.200
256.459 556.200
255.829 561.800
255.197 554.400
254.566 548.600
253.936 554.400
253.305 550.400
252.673 527.400
252.042 533.200
251.412 514.800
250.780 502.400
250.149 482.400
249.518 473.600
248.886 468.400
248.255 454.600
247.624 432.400
246.992 429.400
246.360 416.800
245.728 413.000
245.097 399.800
244.466 400.200
243.833 395.600
243.202 380.400
242.569 386.600
241.938 371.200
241.305 367.400
240.674 359.200
240.041 344.200
239.410 348.600
238.777 350.000
238.145 336.400
237.512 333.800
236.881 344.600
236.248 319.200
235.616 333.400
234.983 315.200
234.351 318.800
233.718 319.200
233.085 304.600
232.453 306.800
231.820 311.600
231.186 300.800
230.554 308.800
229.921 297.200
229.289 311.800
228.655 301.200
228.022 286.400
227.390 299.600
226.756 284.600
226.123 290.200
225.489 297.400
224.856 282.400
224.223 300.600
223.589 287.800
222.955 288.600
222.323 286.800
221.689 288.000
221.055 289.400
220.421 289.200
219.788 283.600
219.154 281.800
218.520 283.200
217.886 286.400
217.252 269.200
216.618 278.800
215.985 280.400
215.350 260.600
214.716 269.000
214.082 255.400
213.447 266.400
212.813 270.200
212.178 261.000
