834.788 127.600
834.204 126.400
833.621 124.600
833.037 124.600
832.453 128.400
831.870 127.200
831.286 125.600
830.702 128.800
830.118 128.200
829.535 124.000
828.950 124.000
828.367 131.200
827.782 130.200
827.198 127.200
826.615 135.400
826.030 119.400
825.446 127.000
824.861 130.900
824.277 125.800
823.692 125.800
823.109 134.800
822.523 131.600
821.940 135.800
821.354 128.600
820.770 126.800
820.185 124.000
819.601 120.600
819.016 130.800
818.431 131.400
817.846 120.400
817.261 135.400
816.677 128.400
816.091 135.800
815.506 127.400
814.922 124.000
814.336 132.400
813.750 133.600
813.166 128.000
812.580 124.200
811.995 129.400
811.410 127.000
810.824 118.400
810.239 131.000
809.653 133.000
809.068 119.400
808.482 123.800
807.896 129.000
807.310 139.800
806.724 125.800
806.139 123.400
805.553 128.400
804.967 127.800
804.381 123.000
803.795 128.400
803.209 128.600
802.624 127.400
802.037 127.400
801.451 124.000
800.865 122.200
800.278 126.000
799.692 126.600
799.105 132.600
798.519 124.600
797.932 131.000
797.346 121.600
796.759 133.600
796.173 121.400
795.586 126.200
794.999 122.800
794.412 124.200
793.826 114.600
793.239 126.600
792.652 128.000
792.065 120.200
791.478 123.800
790.891 134.200
790.303 123.200
789.716 130.200
789.129 127.000
788.542 131.000
787.955 132.400
787.368 132.800
786.781 122.600
786.192 130.200
785.605 127.400
785.018 126.400
784.430 124.000
783.842 137.000
783.254 128.800
782.667 130.800
782.079 133.800
781.491 122.600
780.903 127.800
780.316 133.800
779.727 126.400
779.139 128.400
778.551 124.200
777.963 131.000
777.375 129.200
776.787 129.400
776.198 123.000
775.610 124.600
775.022 135.600
774.433 129.800
773.845 134.800
773.256 130.200
772.668 128.400
772.079 133.400
771.491 137.000
770.901 134.000
770.313 131.600
769.724 129.800
769.136 121.400
768.546 123.800
767.958 127.400
767.368 130.600
766.780 129.200
766.190 125.600
765.602 117.600
765.012 128.200
764.422 128.000
763.834 127.400
763.244 130.600
762.655 125.600
762.066 125.600
761.476 128.000
760.887 127.000
760.297 133.600
759.707 132.400
759.117 134.800
758.528 136.800
757.938 128.200
757.348 130.200
756.759 135.800
756.169 135.600
755.578 136.200
754.988 132.000
754.398 132.600
753.809 136.800
753.218 139.600
752.628 132.400
752.037 135.200
751.447 131.000
750.858 128.600
750.267 131.800
749.676 131.200
749.086 131.200
748.495 134.200
747.904 130.000
747.314 130.600
746.723 128.400
746.132 137.200
745.541 134.400
744.950 132.000
744.360 135.200
743.769 131.400
743.178 132.600
742.587 135.800
741.996 131.800
741.404 132.000
740.813 136.600
740.222 133.800
739.631 133.200
739.040 127.800
738.449 132.600
737.857 143.000
737.266 139.400
736.674 133.800
736.083 135.400
735.490 137.200
734.899 141.400
734.307 137.800
733.716 134.800
733.124 131.800
732.533 137.200
731.940 128.600
731.348 134.800
730.756 135.600
730.165 126.800
729.572 134.000
728.980 132.800
728.388 133.000
727.796 133.200
727.203 132.200
726.611 135.600
726.019 128.400
725.426 138.000
724.834 133.600
724.242 135.600
723.648 142.200
723.056 136.800
722.464 145.000
721.870 133.800
721.278 145.000
720.685 134.000
720.092 139.200
719.500 148.800
718.906 134.600
718.314 137.400
717.720 137.000
717.127 137.000
716.534 133.400
715.941 139.200
715.347 139.000
714.755 142.400
714.161 137.600
713.568 139.000
712.974 141.200
712.380 141.600
711.787 139.000
711.193 146.400
710.600 148.800
710.006 150.400
709.412 150.400
708.819 151.800
708.224 146.800
707.631 151.600
707.037 145.400
706.443 148.400
705.848 153.200
705.255 156.200
704.660 151.800
704.066 166.800
703.472 157.800
702.878 158.000
702.283 158.200
701.689 164.000
701.095 153.200
700.500 163.600
699.906 159.400
699.311 162.400
698.716 158.800
698.122 163.400
697.527 157.600
696.932 164.200
696.337 168.400
695.742 167.000
695.147 174.800
694.552 174.600
693.957 179.800
693.363 164.000
692.768 168.400
692.173 163.200
691.578 163.400
690.982 171.000
690.387 163.400
689.791 168.400
689.196 166.800
688.601 162.800
688.005 165.000
687.410 166.600
686.814 169.800
686.218 169.800
685.623 169.800
685.027 170.400
684.431 157.800
683.835 171.400
683.239 185.800
682.643 190.200
682.047 174.000
681.451 178.400
680.855 187.400
680.259 184.800
679.663 191.600
679.066 198.400
678.470 196.400
677.874 193.800
677.278 200.400
676.682 193.600
676.084 202.000
675.488 206.200
674.892 213.800
674.296 213.200
673.698 216.600
673.102 212.200
672.505 217.800
671.908 211.600
671.311 192.800
670.715 210.600
670.117 214.800
669.520 215.800
668.924 204.000
668.326 215.600
667.729 198.200
667.132 201.200
666.534 193.600
665.937 198.800
665.339 200.400
664.743 198.200
664.146 203.800
663.548 194.600
662.950 185.400
662.352 183.200
661.755 187.800
661.157 189.600
660.560 176.600
659.961 169.800
659.364 180.400
658.766 177.200
658.168 170.600
657.570 172.800
656.971 176.600
656.374 169.600
655.775 182.200
655.178 168.000
654.579 169.200
653.980 167.800
653.383 161.400
652.784 162.400
652.185 169.000
651.588 170.800
650.989 166.000
650.390 170.600
649.792 160.200
649.193 169.600
648.594 165.600
647.996 162.600
647.397 154.600
646.798 159.200
646.199 160.600
645.599 162.600
645.001 159.400
644.402 164.200
643.803 165.400
643.203 161.600
642.604 161.600
642.006 158.600
641.406 163.600
640.806 160.400
640.207 161.000
639.607 160.800
639.008 159.200
638.408 150.200
637.808 156.000
637.210 156.600
636.610 155.000
636.010 156.600
635.410 156.800
634.810 154.800
634.211 153.600
633.611 151.200
633.011 161.400
632.411 154.200
631.810 149.600
631.210 154.200
630.610 147.200
630.010 146.200
629.410 150.800
628.808 158.000
628.208 153.000
627.608 131.800
627.007 159.200
626.407 149.400
625.807 150.200
625.206 149.400
624.606 154.200
624.004 153.000
623.403 161.200
622.803 143.800
622.202 152.400
621.601 149.600
620.999 155.600
620.399 145.600
619.798 156.000
619.197 150.000
618.596 147.600
617.994 146.200
617.393 144.600
616.792 150.400
616.190 150.200
615.589 155.200
614.988 148.600
614.385 149.800
613.784 152.200
613.183 151.200
612.581 146.400
611.979 152.800
611.378 146.600
610.776 134.800
610.174 148.000
609.572 147.000
608.970 145.000
608.369 151.800
607.766 139.200
607.164 141.200
606.561 144.400
605.960 145.800
605.357 146.000
604.755 142.000
604.152 142.200
603.551 151.000
602.948 136.800
602.346 147.400
601.743 147.800
601.139 140.600
600.537 132.800
599.934 141.800
599.332 143.200
598.729 147.400
598.126 140.400
597.524 139.200
596.920 145.200
596.318 142.600
595.715 134.200
595.111 132.000
594.509 137.800
593.905 138.600
593.301 139.200
592.698 149.000
592.095 140.600
591.492 138.800
590.888 137.200
590.285 147.000
589.681 134.800
589.078 138.400
588.474 137.200
587.870 136.200
587.267 135.000
586.663 137.200
586.059 135.800
585.455 126.000
584.851 135.200
584.247 136.200
583.644 138.200
583.039 132.200
582.435 141.200
581.831 134.000
581.227 123.400
580.622 126.600
580.018 130.600
579.413 129.200
578.809 133.000
578.204 132.200
577.600 123.800
576.995 132.800
576.390 112.000
575.786 123.600
575.181 124.400
574.576 119.800
573.972 130.800
573.367 127.600
572.762 133.600
572.157 120.000
571.552 126.200
570.947 125.800
570.342 121.400
569.737 125.200
569.131 125.000
568.526 116.200
567.921 125.200
567.315 129.200
566.710 130.800
566.105 124.600
565.498 134.200
564.893 127.200
564.288 124.400
563.682 121.200
563.077 124.600
562.470 117.400
561.865 125.400
561.259 118.600
560.654 120.200
560.047 122.800
559.441 129.200
558.835 117.000
558.228 124.200
557.623 122.400
557.017 127.400
556.410 126.800
555.804 122.800
555.198 120.800
554.591 130.600
553.985 125.800
553.379 117.400
552.772 123.000
552.165 113.200
551.558 126.200
550.952 115.800
550.344 121.400
549.738 124.800
549.131 122.800
548.524 123.200
547.918 124.600
547.310 114.400
546.704 120.200
546.096 121.600
545.489 125.200
544.882 124.400
544.274 125.400
543.668 125.400
543.060 123.400
542.453 117.800
541.845 125.000
541.237 121.400
540.630 124.600
540.022 119.600
539.415 126.800
538.807 122.400
538.199 121.800
537.592 125.200
536.984 120.600
536.376 126.800
535.768 114.600
535.160 117.400
534.552 122.400
533.943 127.800
533.336 118.000
532.728 122.400
532.119 119.400
531.510 115.600
530.903 128.400
530.294 119.800
529.686 126.400
529.077 121.400
528.468 124.200
527.859 124.400
527.252 121.800
526.643 120.000
526.034 121.000
525.425 116.400
524.816 128.000
524.207 123.800
523.598 123.400
522.989 111.400
522.380 124.600
521.772 123.400
521.163 122.600
520.553 129.200
519.944 119.400
519.335 122.400
518.725 120.600
518.116 122.000
517.507 120.800
516.897 121.000
516.288 126.200
515.678 127.400
515.069 126.000
514.458 133.200
513.848 121.000
513.238 131.000
512.629 128.800
512.019 122.200
511.409 130.200
510.799 122.000
510.189 128.600
509.579 122.200
508.968 120.200
508.358 123.600
507.748 125.200
507.138 122.200
506.528 125.000
505.918 128.000
505.307 123.000
504.696 120.600
504.086 127.400
503.476 117.200
502.864 126.000
502.254 124.400
501.644 122.400
501.032 121.200
500.421 129.400
499.811 128.200
499.200 129.800
498.589 125.800
497.978 121.200
497.367 128.200
496.755 127.400
496.145 121.600
495.533 132.000
494.922 125.800
494.311 125.800
493.699 124.000
493.088 115.600
492.476 126.600
491.865 125.600
491.253 126.800
490.641 129.200
490.029 130.200
489.418 131.800
488.806 128.000
488.194 124.800
487.582 130.600
486.971 132.600
486.358 131.200
485.747 127.400
485.134 132.600
484.523 135.400
483.910 138.400
483.298 133.200
482.686 133.000
482.073 133.400
481.461 122.400
480.848 133.600
480.235 131.400
479.624 134.200
479.011 132.600
478.398 130.400
477.786 138.600
477.173 133.200
476.560 124.200
475.948 138.000
475.334 130.600
474.721 125.400
474.108 131.400
473.496 137.200
472.882 134.000
472.269 129.800
471.655 130.200
471.043 129.800
470.430 125.600
469.816 130.400
469.202 126.400
468.589 125.400
467.975 128.400
467.363 133.200
466.749 128.200
466.135 126.600
465.521 127.200
464.907 133.000
464.293 128.000
463.680 127.200
463.066 128.800
462.452 123.200
461.838 118.800
461.223 132.000
460.609 118.800
459.996 128.400
459.382 129.200
458.768 124.000
458.154 125.000
457.538 125.400
456.924 131.800
456.309 123.400
455.695 129.600
455.080 120.800
454.466 124.000
453.851 126.000
453.237 120.200
452.622 127.800
452.008 127.200
451.393 120.600
450.778 123.400
450.162 125.200
449.547 126.600
448.932 128.000
448.318 127.000
447.703 119.800
447.088 129.600
446.472 131.200
445.856 129.800
445.241 127.600
444.626 137.200
444.010 116.600
443.395 130.600
442.780 135.600
442.164 126.200
441.548 128.000
440.932 126.000
440.317 136.800
439.700 131.800
439.085 137.200
438.469 131.000
437.853 133.000
437.237 123.800
436.622 126.200
436.005 135.800
435.389 137.400
434.773 136.000
434.156 139.200
433.541 130.400
432.923 138.800
432.308 131.800
431.690 136.400
431.075 127.800
430.457 136.200
429.841 135.800
429.225 126.000
428.608 138.400
427.992 132.200
427.374 139.200
426.757 142.000
426.141 143.200
425.523 144.400
424.907 142.400
424.289 136.200
423.673 121.000
423.055 138.000
422.438 136.200
421.821 147.000
421.203 140.200
420.587 143.000
419.969 150.400
419.351 142.000
418.734 143.600
418.116 146.800
417.498 144.400
416.882 144.200
416.263 138.600
415.645 145.200
415.027 144.400
414.410 143.200
413.792 146.600
413.174 143.800
412.555 144.400
411.938 148.800
411.320 151.600
410.702 155.600
410.083 150.600
409.466 144.200
408.847 151.200
408.229 143.000
407.610 149.200
406.991 154.400
406.373 149.200
405.754 139.200
405.136 144.800
404.518 148.000
403.899 150.400
403.280 146.600
402.661 147.600
402.042 152.600
401.423 150.600
400.804 149.800
400.185 149.000
399.566 149.800
398.947 146.200
398.328 146.400
397.708 153.000
397.089 152.200
396.470 152.200
395.850 140.800
395.231 143.400
394.612 142.200
393.992 148.600
393.373 143.400
392.753 150.200
392.134 141.400
391.514 144.400
390.893 135.200
390.273 138.800
389.654 146.400
389.034 139.800
388.414 147.000
387.794 146.800
387.174 144.800
386.553 150.400
385.933 147.400
385.313 156.200
384.693 150.200
384.072 151.800
383.452 165.600
382.832 161.000
382.212 154.200
381.590 162.400
380.970 158.400
380.350 175.600
379.729 178.200
379.108 187.600
378.487 192.800
377.867 208.800
377.245 201.800
376.625 213.000
376.004 222.200
375.382 223.800
374.762 230.200
374.141 234.600
373.519 237.000
372.898 248.200
372.276 256.600
371.655 255.800
371.033 262.000
370.412 258.800
369.791 259.400
369.169 258.200
368.548 270.200
367.926 272.800
367.305 276.200
366.682 278.200
366.061 272.200
365.439 283.400
364.818 266.000
364.195 282.800
363.573 285.600
362.951 277.200
362.329 280.200
361.707 280.400
361.084 282.200
360.462 287.000
359.840 310.000
359.217 314.200
358.596 316.000
357.973 310.800
357.350 322.000
356.728 334.200
356.105 348.800
355.482 340.800
354.860 343.200
354.237 363.800
353.614 371.200
352.991 383.000
352.369 398.600
351.745 415.400
351.122 439.000
350.499 433.200
349.876 442.000
349.253 464.600
348.629 498.400
348.006 482.600
347.382 483.800
346.760 525.400
346.136 545.400
345.513 574.800
344.889 640.000
344.265 685.000
343.641 771.000
343.018 907.000
342.395 1072.200
341.771 1307.800
341.147 1710.200
340.523 2112.000
339.899 2306.800
339.275 2228.200
338.651 1944.400
338.027 1704.000
337.403 1463.000
336.778 1284.400
336.154 1163.400
335.530 1035.200
334.905 946.600
334.281 873.800
333.657 808.000
333.032 736.000
332.408 672.400
331.783 626.400
331.159 570.800
330.534 530.600
329.909 498.600
329.285 475.000
328.659 437.000
328.034 429.800
327.409 389.600
326.784 384.600
326.159 375.200
325.535 350.200
324.910 331.600
324.283 324.200
323.658 316.800
323.033 307.800
322.408 302.400
321.783 285.600
321.157 282.400
320.531 277.200
319.906 278.400
319.281 272.600
318.654 267.400
318.029 258.200
317.403 252.800
316.777 266.800
316.151 250.400
315.526 253.000
314.899 260.400
314.273 245.000
313.648 253.200
313.021 244.600
312.395 253.000
311.769 248.600
311.142 254.600
310.516 246.400
309.889 246.000
309.263 255.800
308.637 241.600
308.010 243.600
307.384 249.800
306.757 238.200
306.131 238.400
305.503 253.200
304.877 242.600
304.249 242.000
303.623 248.600
302.996 244.000
302.369 249.800
301.742 243.000
301.115 256.200
300.487 253.800
299.861 263.600
299.233 259.200
298.605 264.400
297.979 275.000
297.351 282.600
296.724 282.600
296.096 297.600
295.468 306.200
294.841 302.800
294.213 338.000
293.585 357.800
292.958 368.800
292.330 397.400
291.702 433.600
291.075 442.000
290.446 471.200
289.818 495.000
289.189 508.800
288.562 501.800
287.934 469.600
287.305 455.400
286.677 406.400
286.049 397.800
285.421 364.600
284.792 330.600
284.163 327.200
283.534 307.400
282.907 289.000
282.278 292.200
281.649 281.600
281.020 279.400
280.391 277.800
279.762 271.400
279.133 265.400
278.505 282.800
277.876 261.000
277.247 267.600
276.618 262.200
275.989 257.200
275.359 246.600
274.730 237.000
274.101 244.600
273.471 232.000
272.842 226.200
272.212 223.600
271.583 221.800
270.953 215.400
270.324 208.200
269.694 198.800
269.065 217.400
268.435 205.000
267.805 208.000
267.175 212.400
266.545 193.200
265.916 201.800
265.284 192.000
264.655 208.800
264.025 198.600
263.395 202.800
262.764 194.400
262.134 201.400
261.504 195.400
260.873 194.800
260.243 195.400
259.612 196.000
258.982 193.200
258.352 195.800
257.720 197.000
257.090 193.400
256.459 202.200
255.829 200.800
255.197 194.600
254.566 197.600
253.936 208.600
253.305 206.400
252.673 190.400
252.042 199.600
251.412 188.200
250.780 192.200
250.149 177.000
249.518 169.000
248.886 167.200
248.255 188.400
247.624 169.800
246.992 166.400
246.360 167.600
245.728 161.400
245.097 156.200
244.466 149.000
243.833 152.600
243.202 148.800
242.569 152.400
241.938 147.000
241.305 139.600
240.674 136.000
240.041 148.800
239.410 140.000
238.777 139.200
238.145 136.400
237.512 138.800
236.881 138.200
236.248 129.400
235.616 122.200
234.983 123.600
234.351 127.000
233.718 120.800
233.085 124.800
232.453 125.000
231.820 127.200
231.186 131.000
230.554 127.000
229.921 126.400
229.289 122.600
228.655 119.600
228.022 123.800
227.390 115.400
226.756 118.200
226.123 121.800
225.489 120.600
224.856 120.000
224.223 114.600
223.589 118.400
222.955 118.000
222.323 118.800
221.689 121.800
221.055 115.000
220.421 118.600
219.788 120.800
219.154 113.800
218.520 114.200
217.886 110.400
217.252 114.000
216.618 120.200
215.985 118.600
215.350 113.800
214.716 113.400
214.082 112.800
213.447 108.400
212.813 104.800
212.178 110.200
