834.788 181.600
834.204 181.400
833.621 179.000
833.037 167.400
832.453 175.000
831.870 180.400
831.286 176.800
830.702 179.200
830.118 176.800
829.535 172.400
828.950 182.800
828.367 175.800
827.782 176.800
827.198 181.200
826.615 183.600
826.030 178.200
825.446 176.600
824.861 179.700
824.277 182.200
823.692 178.400
823.109 175.800
822.523 176.200
821.940 175.000
821.354 190.600
820.770 187.400
820.185 178.600
819.601 186.200
819.016 181.400
818.431 185.600
817.846 186.800
817.261 185.400
816.677 178.600
816.091 174.400
815.506 179.800
814.922 174.600
814.336 173.600
813.750 183.400
813.166 179.200
812.580 185.400
811.995 174.600
811.410 179.400
810.824 176.600
810.239 170.800
809.653 181.000
809.068 170.200
808.482 185.800
807.896 177.400
807.310 178.800
806.724 180.800
806.139 177.400
805.553 171.600
804.967 181.600
804.381 177.200
803.795 174.800
803.209 180.400
802.624 175.600
802.037 175.400
801.451 178.000
800.865 172.000
800.278 173.600
799.692 176.200
799.105 182.000
798.519 178.200
797.932 179.400
797.346 187.000
796.759 174.200
796.173 181.000
795.586 183.200
794.999 187.600
794.412 181.200
793.826 182.200
793.239 176.400
792.652 181.200
792.065 179.600
791.478 175.000
790.891 186.200
790.303 178.800
789.716 177.600
789.129 189.000
788.542 169.600
787.955 173.400
787.368 174.600
786.781 183.600
786.192 189.600
785.605 184.800
785.018 184.400
784.430 178.800
783.842 175.200
783.254 183.800
782.667 186.200
782.079 180.200
781.491 179.400
780.903 178.000
780.316 182.400
779.727 190.800
779.139 172.200
778.551 189.000
777.963 186.200
777.375 191.200
776.787 176.600
776.198 187.600
775.610 177.200
775.022 178.800
774.433 184.400
773.845 184.400
773.256 183.800
772.668 182.200
772.079 177.400
771.491 186.600
770.901 183.400
770.313 187.200
769.724 188.000
769.136 190.000
768.546 189.600
767.958 185.200
767.368 185.600
766.780 180.600
766.190 178.200
765.602 183.800
765.012 184.400
764.422 183.200
763.834 193.200
763.244 186.000
762.655 188.600
762.066 197.600
761.476 183.800
760.887 191.600
760.297 181.400
759.707 187.600
759.117 193.000
758.528 181.800
757.938 189.800
757.348 204.600
756.759 195.000
756.169 194.800
755.578 186.400
754.988 191.800
754.398 194.400
753.809 185.600
753.218 188.400
752.628 188.200
752.037 199.000
751.447 192.600
750.858 199.400
750.267 197.600
749.676 188.200
749.086 195.800
748.495 192.800
747.904 206.800
747.314 194.000
746.723 194.000
746.132 192.200
745.541 188.200
744.950 203.400
744.360 204.000
743.769 183.200
743.178 189.400
742.587 196.200
741.996 199.600
741.404 197.600
740.813 199.000
740.222 195.000
739.631 191.600
739.040 201.200
738.449 196.000
737.857 182.400
737.266 196.200
736.674 201.400
736.083 197.600
735.490 196.200
734.899 201.200
734.307 198.800
733.716 199.200
733.124 192.000
732.533 207.400
731.940 208.600
731.348 200.200
730.756 202.600
730.165 196.400
729.572 192.600
728.980 192.400
728.388 206.400
727.796 203.200
727.203 195.600
726.611 196.000
726.019 203.800
725.426 203.800
724.834 207.200
724.242 214.600
723.648 201.800
723.056 195.600
722.464 201.800
721.870 210.200
721.278 215.200
720.685 203.200
720.092 201.200
719.500 211.200
718.906 211.000
718.314 204.600
717.720 215.800
717.127 211.400
716.534 211.200
715.941 201.000
715.347 210.600
714.755 214.800
714.161 211.000
713.568 212.800
712.974 218.400
712.380 216.600
711.787 207.600
711.193 220.400
710.600 216.200
710.006 220.200
709.412 225.400
708.819 218.800
708.224 226.600
707.631 227.400
707.037 229.400
706.443 236.400
705.848 237.200
705.255 235.400
704.660 245.800
704.066 241.200
703.472 237.000
702.878 233.600
702.283 243.600
701.689 245.800
701.095 246.400
700.500 246.000
699.906 254.000
699.311 248.600
698.716 243.400
698.122 253.800
697.527 257.800
696.932 254.800
696.337 261.600
695.742 260.400
695.147 252.400
694.552 263.400
693.957 260.200
693.363 270.600
692.768 263.000
692.173 261.800
691.578 266.800
690.982 258.800
690.387 264.400
689.791 262.600
689.196 262.800
688.601 263.400
688.005 258.600
687.410 255.600
686.814 266.400
686.218 265.200
685.623 267.200
685.027 265.000
684.431 268.200
683.835 283.600
683.239 278.600
682.643 274.000
682.047 280.400
681.451 274.600
680.855 280.800
680.259 297.000
679.663 284.000
679.066 301.800
678.470 307.800
677.874 305.800
677.278 315.200
676.682 321.600
676.084 317.000
675.488 326.600
674.892 331.200
674.296 349.400
673.698 337.200
673.102 336.200
672.505 344.200
671.908 349.200
671.311 337.800
670.715 348.800
670.117 349.400
669.520 344.000
668.924 341.200
668.326 322.800
667.729 329.400
667.132 324.800
666.534 325.600
665.937 315.400
665.339 318.400
664.743 298.800
664.146 309.800
663.548 306.200
662.950 293.400
662.352 286.400
661.755 292.800
661.157 287.400
660.560 287.000
659.961 284.400
659.364 265.000
658.766 279.800
658.168 263.800
657.570 264.800
656.971 271.600
656.374 265.800
655.775 254.400
655.178 255.000
654.579 264.400
653.980 270.200
653.383 252.000
652.784 257.200
652.185 247.800
651.588 259.800
650.989 254.200
650.390 254.400
649.792 257.400
649.193 261.800
648.594 261.000
647.996 257.800
647.397 255.800
646.798 249.800
646.199 249.200
645.599 252.800
645.001 237.600
644.402 247.800
643.803 244.400
643.203 249.000
642.604 241.400
642.006 242.600
641.406 247.400
640.806 243.200
640.207 246.600
639.607 246.600
639.008 242.400
638.408 242.400
637.808 245.200
637.210 242.400
636.610 236.400
636.010 245.000
635.410 236.400
634.810 240.200
634.211 244.400
633.611 240.400
633.011 226.200
632.411 243.200
631.810 234.600
631.210 237.200
630.610 239.000
630.010 228.800
629.410 237.200
628.808 235.600
628.208 238.400
627.608 208.200
627.007 235.200
626.407 240.000
625.807 244.200
625.206 239.800
624.606 237.800
624.004 238.400
623.403 234.800
622.803 234.600
622.202 243.600
621.601 236.600
620.999 238.600
620.399 236.000
619.798 233.400
619.197 230.200
618.596 241.400
617.994 230.200
617.393 231.200
616.792 221.600
616.190 242.000
615.589 234.200
614.988 239.800
614.385 239.600
613.784 227.200
613.183 237.800
612.581 233.600
611.979 223.800
611.378 230.600
610.776 233.600
610.174 225.400
609.572 228.000
608.970 235.200
608.369 229.800
607.766 225.800
607.164 230.000
606.561 223.600
605.960 227.600
605.357 230.200
604.755 223.400
604.152 231.800
603.551 226.400
602.948 228.200
602.346 231.800
601.743 229.000
601.139 225.600
600.537 232.400
599.934 227.800
599.332 235.800
598.729 222.400
598.126 219.800
597.524 221.000
596.920 223.200
596.318 226.800
595.715 216.800
595.111 221.600
594.509 217.000
593.905 223.400
593.301 231.000
592.698 213.000
592.095 218.400
591.492 214.000
590.888 215.800
590.285 218.800
589.681 217.600
589.078 209.600
588.474 205.200
587.870 205.200
587.267 215.400
586.663 209.200
586.059 215.400
585.455 209.600
584.851 214.800
584.247 207.400
583.644 196.000
583.039 207.000
582.435 204.000
581.831 217.600
581.227 201.400
580.622 207.800
580.018 215.200
579.413 195.800
578.809 199.600
578.204 201.200
577.600 211.200
576.995 198.400
576.390 199.200
575.786 203.800
575.181 203.600
574.576 199.200
573.972 198.800
573.367 194.800
572.762 201.800
572.157 207.200
571.552 197.600
570.947 194.200
570.342 201.200
569.737 202.200
569.131 188.600
568.526 185.000
567.921 196.200
567.315 200.400
566.710 195.800
566.105 201.600
565.498 199.000
564.893 195.800
564.288 192.400
563.682 196.400
563.077 194.400
562.470 184.800
561.865 187.600
561.259 193.600
560.654 196.600
560.047 200.000
559.441 190.800
558.835 191.800
558.228 191.200
557.623 204.200
557.017 195.800
556.410 184.400
555.804 191.800
555.198 195.200
554.591 200.200
553.985 182.400
553.379 194.600
552.772 198.800
552.165 195.600
551.558 190.600
550.952 201.200
550.344 185.000
549.738 194.400
549.131 186.000
548.524 194.400
547.918 188.200
547.310 194.400
546.704 191.400
546.096 185.800
545.489 186.200
544.882 191.800
544.274 181.400
543.668 186.400
543.060 182.800
542.453 182.000
541.845 184.600
541.237 197.000
540.630 203.200
540.022 190.000
539.415 196.600
538.807 198.400
538.199 181.800
537.592 193.600
536.984 185.400
536.376 188.400
535.768 183.200
535.160 185.400
534.552 196.400
533.943 188.200
533.336 195.200
532.728 193.800
532.119 189.000
531.510 195.600
530.903 185.400
530.294 188.000
529.686 183.400
529.077 196.400
528.468 194.800
527.859 192.800
527.252 202.800
526.643 188.800
526.034 205.400
525.425 188.800
524.816 193.400
524.207 198.200
523.598 195.000
522.989 180.400
522.380 192.800
521.772 186.400
521.163 188.200
520.553 196.200
519.944 190.800
519.335 193.200
518.725 188.200
518.116 185.800
517.507 197.200
516.897 205.600
516.288 195.800
515.678 204.000
515.069 186.200
514.458 192.000
513.848 190.200
513.238 201.800
512.629 200.000
512.019 196.600
511.409 191.800
510.799 198.200
510.189 186.400
509.579 195.000
508.968 193.600
508.358 203.200
507.748 198.800
507.138 205.000
506.528 204.000
505.918 187.800
505.307 205.600
504.696 189.200
504.086 201.600
503.476 197.800
502.864 197.200
502.254 205.400
501.644 206.400
501.032 201.000
500.421 212.200
499.811 207.800
499.200 206.600
498.589 210.600
497.978 205.200
497.367 218.400
496.755 219.200
496.145 218.800
495.533 207.400
494.922 214.000
494.311 222.800
493.699 215.000
493.088 211.400
492.476 204.200
491.865 211.000
491.253 222.600
490.641 217.200
490.029 230.400
489.418 229.200
488.806 227.000
488.194 236.000
487.582 235.000
486.971 247.600
486.358 242.800
485.747 253.800
485.134 249.800
484.523 253.000
483.910 262.200
483.298 280.200
482.686 281.000
482.073 280.800
481.461 298.600
480.848 314.400
480.235 319.400
479.624 338.600
479.011 353.400
478.398 376.800
477.786 390.800
477.173 405.400
476.560 416.400
475.948 416.800
475.334 401.000
474.721 407.200
474.108 405.800
473.496 397.800
472.882 388.400
472.269 388.400
471.655 369.600
471.043 358.400
470.430 347.400
469.816 337.600
469.202 341.200
468.589 320.400
467.975 329.000
467.363 315.600
466.749 302.800
466.135 287.200
465.521 288.200
464.907 274.200
464.293 276.000
463.680 270.200
463.066 269.000
462.452 272.000
461.838 252.800
461.223 254.800
460.609 262.000
459.996 244.800
459.382 251.800
458.768 232.800
458.154 239.000
457.538 231.400
456.924 239.000
456.309 246.200
455.695 221.400
455.080 226.200
454.466 229.800
453.851 221.200
453.237 228.800
452.622 217.200
452.008 224.800
451.393 219.200
450.778 228.800
450.162 221.200
449.547 222.000
448.932 215.800
448.318 216.600
447.703 215.800
447.088 215.600
446.472 223.000
445.856 209.200
445.241 224.000
444.626 215.800
444.010 205.400
443.395 224.000
442.780 214.800
442.164 206.200
441.548 214.000
440.932 220.800
440.317 211.000
439.700 219.400
439.085 222.000
438.469 213.400
437.853 219.400
437.237 229.600
436.622 218.000
436.005 223.600
435.389 217.000
434.773 220.800
434.156 225.400
433.541 222.600
432.923 228.400
432.308 225.800
431.690 224.600
431.075 227.400
430.457 224.400
429.841 229.600
429.225 224.000
428.608 229.400
427.992 227.600
427.374 244.000
426.757 238.600
426.141 242.400
425.523 232.000
424.907 232.800
424.289 235.800
423.673 220.200
423.055 241.400
422.438 234.400
421.821 238.000
421.203 248.400
420.587 235.000
419.969 237.800
419.351 245.800
418.734 237.400
418.116 243.400
417.498 246.000
416.882 257.600
416.263 249.200
415.645 257.800
415.027 226.400
414.410 243.200
413.792 245.000
413.174 244.000
412.555 239.600
411.938 257.400
411.320 257.400
410.702 246.200
410.083 247.400
409.466 261.000
408.847 252.200
408.229 254.400
407.610 247.400
406.991 258.200
406.373 261.000
405.754 251.200
405.136 249.200
404.518 253.600
403.899 251.200
403.280 256.600
402.661 253.800
402.042 253.800
401.423 249.600
400.804 260.200
400.185 254.000
399.566 243.400
398.947 251.000
398.328 257.800
397.708 252.000
397.089 248.600
396.470 250.800
395.850 257.200
395.231 259.800
394.612 249.400
393.992 249.200
393.373 245.000
392.753 248.200
392.134 241.800
391.514 260.800
390.893 255.600
390.273 247.800
389.654 240.600
389.034 248.200
388.414 251.200
387.794 259.800
387.174 247.800
386.553 272.400
385.933 259.400
385.313 259.600
384.693 268.200
384.072 269.800
383.452 278.000
382.832 280.400
382.212 283.800
381.590 292.600
380.970 315.400
380.350 312.600
379.729 319.600
379.108 333.000
378.487 332.200
377.867 344.400
377.245 350.600
376.625 383.800
376.004 390.600
375.382 399.600
374.762 397.400
374.141 398.600
373.519 419.600
372.898 419.600
372.276 419.800
371.655 431.800
371.033 435.600
370.412 461.800
369.791 450.600
369.169 466.400
368.548 469.000
367.926 488.200
367.305 495.400
366.682 519.600
366.061 527.800
365.439 538.000
364.818 546.600
364.195 560.200
363.573 566.800
362.951 591.400
362.329 601.800
361.707 595.200
361.084 639.200
360.462 637.400
359.840 642.600
359.217 686.600
358.596 681.600
357.973 689.400
357.350 700.200
356.728 715.000
356.105 716.800
355.482 733.600
354.860 759.200
354.237 757.800
353.614 756.000
352.991 769.600
352.369 784.800
351.745 807.400
351.122 803.200
350.499 827.800
349.876 875.800
349.253 866.600
348.629 894.800
348.006 927.200
347.382 935.200
346.760 988.600
346.136 1052.200
345.513 1126.000
344.889 1246.000
344.265 1368.600
343.641 1632.800
343.018 1954.000
342.395 2407.800
341.771 2878.600
341.147 3348.000
340.523 3623.400
339.899 3795.600
339.275 3680.000
338.651 3352.000
338.027 3012.600
337.403 2615.400
336.778 2304.800
336.154 2042.400
335.530 1805.600
334.905 1635.800
334.281 1471.800
333.657 1354.000
333.032 1234.400
332.408 1130.600
331.783 993.200
331.159 969.200
330.534 877.800
329.909 823.600
329.285 759.000
328.659 737.000
328.034 698.000
327.409 662.800
326.784 637.200
326.159 593.400
325.535 566.600
324.910 549.800
324.283 535.800
323.658 519.200
323.033 510.600
322.408 488.600
321.783 489.000
321.157 469.400
320.531 480.600
319.906 476.000
319.281 478.200
318.654 474.800
318.029 474.800
317.403 479.600
316.777 478.400
316.151 481.400
315.526 474.200
314.899 483.400
314.273 478.400
313.648 469.400
313.021 496.400
312.395 472.200
311.769 477.400
311.142 465.600
310.516 463.800
309.889 468.400
309.263 463.400
308.637 472.600
308.010 468.000
307.384 459.200
306.757 462.200
306.131 465.000
305.503 471.000
304.877 462.200
304.249 457.400
303.623 475.200
302.996 471.800
302.369 465.400
301.742 472.200
301.115 475.200
300.487 494.200
299.861 497.000
299.233 503.800
298.605 515.600
297.979 516.600
297.351 548.000
296.724 564.400
296.096 574.200
295.468 613.800
294.841 628.800
294.213 665.200
293.585 711.200
292.958 727.600
292.330 774.600
291.702 841.000
291.075 859.600
290.446 907.600
289.818 916.600
289.189 925.200
288.562 875.600
287.934 857.200
287.305 814.800
286.677 787.200
286.049 719.200
285.421 652.000
284.792 632.200
284.163 632.600
283.534 570.600
282.907 566.400
282.278 553.600
281.649 547.800
281.020 551.600
280.391 539.800
279.762 523.400
279.133 528.800
278.505 517.800
277.876 514.200
277.247 511.800
276.618 483.800
275.989 483.400
275.359 466.200
274.730 458.800
274.101 467.600
273.471 448.600
272.842 438.200
272.212 420.800
271.583 420.600
270.953 407.800
270.324 410.800
269.694 398.200
269.065 400.200
268.435 400.200
267.805 392.000
267.175 377.400
266.545 394.200
265.916 385.000
265.284 370.800
264.655 366.400
264.025 381.200
263.395 381.000
262.764 386.200
262.134 366.800
261.504 369.400
260.873 364.400
260.243 382.400
259.612 375.000
258.982 385.000
258.352 370.600
257.720 367.200
257.090 370.000
256.459 387.200
255.829 380.800
255.197 375.400
254.566 370.200
253.936 364.600
253.305 378.200
252.673 371.400
252.042 376.600
251.412 370.400
250.780 360.400
250.149 366.200
249.518 338.800
248.886 335.400
248.255 342.400
247.624 337.000
246.992 318.200
246.360 317.800
245.728 308.400
245.097 304.400
244.466 300.800
243.833 300.400
243.202 281.200
242.569 278.400
241.938 274.000
241.305 276.600
240.674 269.400
240.041 278.600
239.410 265.800
238.777 255.600
238.145 257.600
237.512 255.600
236.881 256.600
236.248 253.400
235.616 249.800
234.983 239.200
234.351 238.400
233.718 241.800
233.085 240.000
232.453 226.200
231.820 235.600
231.186 232.400
230.554 238.800
229.921 233.800
229.289 236.800
228.655 224.400
228.022 224.400
227.390 233.400
226.756 211.800
226.123 224.000
225.489 230.000
224.856 207.600
224.223 217.200
223.589 229.200
222.955 221.600
222.323 227.000
221.689 218.600
221.055 219.000
220.421 215.600
219.788 217.200
219.154 210.600
218.520 210.800
217.886 205.000
217.252 216.000
216.618 220.800
215.985 212.400
215.350 206.600
214.716 205.400
214.082 210.200
213.447 207.000
212.813 204.800
212.178 197.200
