834.788 180.200
834.204 183.400
833.621 182.400
833.037 183.600
832.453 189.800
831.870 189.000
831.286 185.600
830.702 184.400
830.118 187.800
829.535 181.600
828.950 182.000
828.367 184.000
827.782 185.600
827.198 187.600
826.615 185.400
826.030 181.200
825.446 179.800
824.861 186.300
824.277 191.600
823.692 185.200
823.109 184.800
822.523 179.600
821.940 190.800
821.354 182.400
820.770 193.600
820.185 189.200
819.601 182.000
819.016 177.000
818.431 192.400
817.846 187.800
817.261 189.000
816.677 185.400
816.091 180.800
815.506 192.400
814.922 184.600
814.336 175.800
813.750 180.200
813.166 189.400
812.580 186.400
811.995 178.800
811.410 182.600
810.824 190.600
810.239 179.400
809.653 173.400
809.068 178.200
808.482 188.600
807.896 187.400
807.310 180.000
806.724 183.000
806.139 186.600
805.553 181.400
804.967 183.400
804.381 182.400
803.795 177.200
803.209 184.800
802.624 177.800
802.037 180.600
801.451 181.000
800.865 180.800
800.278 180.800
799.692 181.400
799.105 188.000
798.519 186.000
797.932 183.400
797.346 185.400
796.759 183.800
796.173 194.200
795.586 184.800
794.999 174.400
794.412 175.600
793.826 184.600
793.239 192.600
792.652 178.000
792.065 173.000
791.478 182.400
790.891 178.400
790.303 179.600
789.716 198.800
789.129 184.200
788.542 196.400
787.955 193.000
787.368 177.000
786.781 184.000
786.192 185.000
785.605 192.200
785.018 181.800
784.430 188.400
783.842 175.400
783.254 190.400
782.667 183.400
782.079 189.800
781.491 181.000
780.903 192.200
780.316 180.200
779.727 188.200
779.139 186.600
778.551 188.400
777.963 184.600
777.375 194.000
776.787 182.400
776.198 185.000
775.610 194.600
775.022 191.800
774.433 183.200
773.845 181.400
773.256 191.600
772.668 185.400
772.079 187.800
771.491 190.400
770.901 193.200
770.313 182.400
769.724 190.400
769.136 198.200
768.546 185.600
767.958 192.200
767.368 182.600
766.780 185.800
766.190 175.400
765.602 190.200
765.012 198.000
764.422 189.600
763.834 186.800
763.244 185.600
762.655 189.000
762.066 188.000
761.476 182.800
760.887 194.200
760.297 198.400
759.707 190.800
759.117 182.800
758.528 187.800
757.938 195.000
757.348 192.400
756.759 185.600
756.169 189.400
755.578 197.000
754.988 200.600
754.398 205.400
753.809 192.600
753.218 195.400
752.628 204.600
752.037 195.800
751.447 189.400
750.858 194.800
750.267 198.200
749.676 196.400
749.086 193.800
748.495 194.800
747.904 184.400
747.314 200.000
746.723 200.200
746.132 196.800
745.541 183.600
744.950 196.600
744.360 189.000
743.769 186.400
743.178 192.200
742.587 193.600
741.996 190.000
741.404 199.600
740.813 200.800
740.222 190.600
739.631 192.200
739.040 203.400
738.449 197.600
737.857 196.600
737.266 182.800
736.674 189.800
736.083 208.800
735.490 197.600
734.899 202.200
734.307 200.800
733.716 200.400
733.124 207.400
732.533 194.200
731.940 203.000
731.348 193.400
730.756 206.200
730.165 201.400
729.572 200.800
728.980 194.400
728.388 198.400
727.796 202.200
727.203 188.800
726.611 197.400
726.019 201.400
725.426 195.200
724.834 202.400
724.242 192.600
723.648 208.000
723.056 209.400
722.464 204.800
721.870 206.600
721.278 214.000
720.685 200.400
720.092 202.200
719.500 207.000
718.906 211.400
718.314 204.000
717.720 208.000
717.127 208.200
716.534 208.200
715.941 203.800
715.347 217.000
714.755 214.800
714.161 217.400
713.568 213.200
712.974 226.200
712.380 220.000
711.787 221.600
711.193 224.600
710.600 230.400
710.006 230.200
709.412 231.200
708.819 239.400
708.224 229.400
707.631 233.400
707.037 240.200
706.443 245.200
705.848 245.600
705.255 235.000
704.660 246.400
704.066 248.200
703.472 236.600
702.878 236.600
702.283 246.800
701.689 243.800
701.095 249.000
700.500 237.600
699.906 238.600
699.311 237.600
698.716 249.200
698.122 249.000
697.527 248.600
696.932 247.600
696.337 240.400
695.742 240.800
695.147 243.200
694.552 255.200
693.957 240.000
693.363 255.200
692.768 254.800
692.173 248.200
691.578 259.400
690.982 251.000
690.387 250.000
689.791 261.000
689.196 256.800
688.601 252.200
688.005 252.400
687.410 252.200
686.814 276.800
686.218 273.800
685.623 272.000
685.027 265.600
684.431 295.200
683.835 289.800
683.239 288.800
682.643 290.600
682.047 285.400
681.451 302.000
680.855 302.800
680.259 293.800
679.663 304.400
679.066 308.800
678.470 310.200
677.874 303.200
677.278 315.400
676.682 313.600
676.084 311.400
675.488 305.000
674.892 315.600
674.296 309.600
673.698 308.200
673.102 303.200
672.505 301.600
671.908 300.800
671.311 299.400
670.715 304.200
670.117 303.800
669.520 304.000
668.924 298.000
668.326 298.400
667.729 278.600
667.132 276.600
666.534 274.000
665.937 288.400
665.339 280.000
664.743 256.000
664.146 281.400
663.548 278.200
662.950 278.600
662.352 272.000
661.755 269.800
661.157 257.800
660.560 259.000
659.961 261.600
659.364 267.600
658.766 259.600
658.168 263.600
657.570 271.400
656.971 260.200
656.374 253.400
655.775 260.800
655.178 255.400
654.579 254.200
653.980 255.600
653.383 243.200
652.784 253.400
652.185 252.000
651.588 249.600
650.989 245.000
650.390 261.000
649.792 246.200
649.193 243.000
648.594 251.400
647.996 246.400
647.397 251.400
646.798 252.800
646.199 255.600
645.599 240.400
645.001 247.600
644.402 253.200
643.803 244.000
643.203 243.000
642.604 238.600
642.006 238.800
641.406 247.800
640.806 237.200
640.207 242.200
639.607 241.600
639.008 231.800
638.408 231.400
637.808 236.200
637.210 222.800
636.610 231.800
636.010 227.200
635.410 227.400
634.810 234.000
634.211 224.400
633.611 231.200
633.011 230.000
632.411 223.400
631.810 229.800
631.210 222.800
630.610 212.800
630.010 221.800
629.410 226.400
628.808 224.800
628.208 219.600
627.608 193.600
627.007 205.200
626.407 223.800
625.807 229.600
625.206 216.800
624.606 216.600
624.004 221.800
623.403 217.600
622.803 212.200
622.202 220.400
621.601 226.800
620.999 216.600
620.399 227.600
619.798 218.200
619.197 219.400
618.596 213.200
617.994 225.400
617.393 213.000
616.792 222.800
616.190 212.800
615.589 206.600
614.988 218.200
614.385 214.400
613.784 212.800
613.183 215.400
612.581 222.400
611.979 202.000
611.378 212.200
610.776 217.400
610.174 213.200
609.572 214.600
608.970 203.200
608.369 224.800
607.766 212.600
607.164 214.400
606.561 225.600
605.960 205.800
605.357 215.200
604.755 211.200
604.152 208.000
603.551 215.400
602.948 217.600
602.346 225.000
601.743 217.600
601.139 213.600
600.537 208.400
599.934 216.200
599.332 212.000
598.729 207.800
598.126 198.400
597.524 208.800
596.920 201.800
596.318 199.400
595.715 196.800
595.111 203.600
594.509 197.800
593.905 200.600
593.301 205.600
592.698 209.200
592.095 199.800
591.492 200.800
590.888 207.400
590.285 202.800
589.681 201.200
589.078 204.000
588.474 204.400
587.870 190.800
587.267 194.800
586.663 194.000
586.059 196.800
585.455 191.400
584.851 192.600
584.247 196.400
583.644 191.200
583.039 194.000
582.435 197.800
581.831 193.000
581.227 203.600
580.622 199.200
580.018 192.000
579.413 184.200
578.809 189.800
578.204 186.600
577.600 187.400
576.995 187.800
576.390 182.200
575.786 191.400
575.181 202.400
574.576 185.200
573.972 185.600
573.367 178.400
572.762 192.200
572.157 187.200
571.552 183.800
570.947 183.600
570.342 188.400
569.737 192.200
569.131 194.800
568.526 180.400
567.921 195.800
567.315 186.000
566.710 190.200
566.105 178.800
565.498 195.000
564.893 183.800
564.288 188.200
563.682 187.400
563.077 182.200
562.470 188.800
561.865 173.200
561.259 179.400
560.654 192.000
560.047 191.000
559.441 185.800
558.835 185.400
558.228 173.800
557.623 196.200
557.017 189.400
556.410 186.600
555.804 189.600
555.198 191.000
554.591 187.800
553.985 184.200
553.379 178.000
552.772 182.200
552.165 186.800
551.558 191.800
550.952 186.200
550.344 187.400
549.738 184.600
549.131 192.000
548.524 186.400
547.918 192.200
547.310 187.800
546.704 186.000
546.096 191.800
545.489 183.000
544.882 177.600
544.274 186.600
543.668 181.600
543.060 190.800
542.453 186.200
541.845 191.400
541.237 181.800
540.630 184.800
540.022 186.800
539.415 183.600
538.807 187.600
538.199 188.200
537.592 188.200
536.984 190.600
536.376 197.600
535.768 186.400
535.160 189.200
534.552 180.200
533.943 193.000
533.336 183.400
532.728 188.200
532.119 196.000
531.510 186.600
530.903 186.200
530.294 187.400
529.686 183.000
529.077 186.800
528.468 191.600
527.859 185.800
527.252 194.600
526.643 185.800
526.034 191.600
525.425 193.000
524.816 196.200
524.207 195.600
523.598 187.400
522.989 207.000
522.380 194.800
521.772 193.000
521.163 197.400
520.553 193.600
519.944 186.800
519.335 192.000
518.725 195.600
518.116 194.000
517.507 193.800
516.897 195.000
516.288 204.800
515.678 186.200
515.069 190.200
514.458 197.800
513.848 192.800
513.238 196.000
512.629 196.300
512.019 196.600
511.409 200.200
510.799 197.000
510.189 205.000
509.579 203.800
508.968 202.600
508.358 203.800
507.748 197.000
507.138 202.800
506.528 198.600
505.918 205.800
505.307 205.200
504.696 208.200
504.086 207.800
503.476 212.600
502.864 222.800
502.254 221.400
501.644 217.400
501.032 220.200
500.421 221.400
499.811 229.000
499.200 237.200
498.589 219.200
497.978 236.000
497.367 243.000
496.755 241.800
496.145 248.800
495.533 245.800
494.922 250.600
494.311 261.600
493.699 256.400
493.088 260.400
492.476 262.400
491.865 282.000
491.253 291.000
490.641 288.000
490.029 306.600
489.418 316.600
488.806 334.000
488.194 342.200
487.582 379.000
486.971 407.000
486.358 416.600
485.747 455.200
485.134 483.400
484.523 539.200
483.910 597.200
483.298 650.000
482.686 730.200
482.073 858.000
481.461 950.600
480.848 1095.800
480.235 1237.200
479.624 1368.600
479.011 1474.000
478.398 1573.600
477.786 1588.800
477.173 1560.200
476.560 1525.400
475.948 1428.200
475.334 1285.800
474.721 1118.200
474.108 1003.400
473.496 912.000
472.882 804.600
472.269 739.400
471.655 655.400
471.043 592.000
470.430 552.000
469.816 513.800
469.202 470.400
468.589 454.400
467.975 427.600
467.363 401.200
466.749 392.200
466.135 372.200
465.521 368.400
464.907 347.400
464.293 342.000
463.680 329.000
463.066 332.200
462.452 317.200
461.838 304.800
461.223 292.800
460.609 290.600
459.996 280.200
459.382 274.200
458.768 264.000
458.154 257.200
457.538 265.800
456.924 250.400
456.309 260.400
455.695 248.000
455.080 236.400
454.466 234.600
453.851 230.800
453.237 228.200
452.622 235.800
452.008 224.800
451.393 218.600
450.778 229.400
450.162 214.200
449.547 216.600
448.932 224.400
448.318 202.600
447.703 206.800
447.088 201.800
446.472 198.600
445.856 207.000
445.241 188.000
444.626 209.600
444.010 202.800
443.395 210.800
442.780 206.400
442.164 193.200
441.548 194.800
440.932 204.400
440.317 200.600
439.700 195.200
439.085 208.600
438.469 203.800
437.853 204.600
437.237 206.200
436.622 196.000
436.005 205.400
435.389 196.200
434.773 206.200
434.156 206.000
433.541 197.200
432.923 186.000
432.308 207.000
431.690 198.600
431.075 202.800
430.457 192.000
429.841 197.600
429.225 212.600
428.608 199.600
427.992 208.000
427.374 205.000
426.757 208.000
426.141 202.400
425.523 206.400
424.907 209.400
424.289 200.600
423.673 187.600
423.055 214.600
422.438 198.600
421.821 205.600
421.203 203.600
420.587 213.000
419.969 195.600
419.351 217.000
418.734 214.200
418.116 206.400
417.498 206.800
416.882 211.000
416.263 209.600
415.645 210.800
415.027 209.000
414.410 215.800
413.792 216.600
413.174 214.400
412.555 215.200
411.938 203.600
411.320 214.000
410.702 209.000
410.083 212.800
409.466 212.800
408.847 216.800
408.229 212.600
407.610 213.600
406.991 196.800
406.373 207.800
405.754 212.600
405.136 207.800
404.518 213.200
403.899 208.600
403.280 215.800
402.661 214.000
402.042 203.200
401.423 208.800
400.804 212.000
400.185 208.200
399.566 210.600
398.947 209.800
398.328 207.800
397.708 203.800
397.089 203.000
396.470 213.600
395.850 208.200
395.231 199.600
394.612 204.800
393.992 198.800
393.373 203.400
392.753 193.800
392.134 198.400
391.514 204.000
390.893 197.200
390.273 202.400
389.654 208.600
389.034 208.400
388.414 215.000
387.794 206.400
387.174 207.600
386.553 221.400
385.933 211.400
385.313 221.200
384.693 229.000
384.072 222.000
383.452 232.600
382.832 242.600
382.212 240.200
381.590 247.200
380.970 259.000
380.350 274.600
379.729 274.000
379.108 278.400
378.487 275.400
377.867 281.200
377.245 292.000
376.625 295.400
376.004 301.400
375.382 309.200
374.762 304.200
374.141 311.000
373.519 312.400
372.898 313.400
372.276 322.600
371.655 314.400
371.033 342.800
370.412 327.800
369.791 354.400
369.169 367.600
368.548 365.600
367.926 389.000
367.305 388.200
366.682 395.600
366.061 397.200
365.439 400.200
364.818 392.000
364.195 396.400
363.573 396.200
362.951 395.400
362.329 390.000
361.707 391.200
361.084 386.600
360.462 397.600
359.840 404.800
359.217 420.200
358.596 427.000
357.973 443.800
357.350 417.400
356.728 441.000
356.105 444.200
355.482 443.600
354.860 452.400
354.237 453.000
353.614 468.600
352.991 466.600
352.369 496.200
351.745 508.000
351.122 533.200
350.499 532.600
349.876 553.400
349.253 568.000
348.629 603.400
348.006 653.800
347.382 668.800
346.760 724.200
346.136 819.000
345.513 894.400
344.889 1014.000
344.265 1148.200
343.641 1304.600
343.018 1432.000
342.395 1567.000
341.771 1614.800
341.147 1611.800
340.523 1572.800
339.899 1557.600
339.275 1462.000
338.651 1388.200
338.027 1294.000
337.403 1229.800
336.778 1153.200
336.154 1035.600
335.530 1001.400
334.905 912.600
334.281 870.800
333.657 821.800
333.032 769.600
332.408 720.000
331.783 677.400
331.159 649.800
330.534 597.000
329.909 579.600
329.285 549.400
328.659 516.000
328.034 496.000
327.409 478.400
326.784 452.400
326.159 424.200
325.535 416.200
324.910 394.400
324.283 372.400
323.658 374.200
323.033 369.600
322.408 371.400
321.783 362.800
321.157 352.400
320.531 368.000
319.906 349.400
319.281 356.800
318.654 372.400
318.029 356.800
317.403 364.600
316.777 349.800
316.151 368.000
315.526 360.400
314.899 357.200
314.273 364.200
313.648 356.600
313.021 348.400
312.395 347.400
311.769 358.600
311.142 342.800
310.516 346.600
309.889 346.000
309.263 336.200
308.637 335.400
308.010 345.200
307.384 333.000
306.757 334.800
306.131 340.000
305.503 336.200
304.877 351.000
304.249 348.200
303.623 337.600
302.996 338.200
302.369 330.600
301.742 330.600
301.115 328.400
300.487 339.800
299.861 341.000
299.233 348.600
298.605 338.800
297.979 342.600
297.351 349.000
296.724 335.800
296.096 359.000
295.468 355.000
294.841 376.600
294.213 373.600
293.585 387.600
292.958 399.000
292.330 406.800
291.702 406.600
291.075 392.600
290.446 391.400
289.818 396.400
289.189 368.600
288.562 382.000
287.934 363.400
287.305 353.200
286.677 341.200
286.049 324.200
285.421 326.400
284.792 317.200
284.163 307.800
283.534 305.200
282.907 296.400
282.278 288.600
281.649 301.600
281.020 286.000
280.391 300.200
279.762 292.600
279.133 290.000
278.505 291.400
277.876 277.000
277.247 291.800
276.618 292.600
275.989 278.400
275.359 280.400
274.730 267.200
274.101 285.600
273.471 286.600
272.842 280.000
272.212 284.400
271.583 279.000
270.953 279.000
270.324 285.000
269.694 281.800
269.065 294.400
268.435 284.000
267.805 286.000
267.175 266.800
266.545 282.200
265.916 280.200
265.284 282.200
264.655 280.800
264.025 272.200
263.395 275.200
262.764 270.400
262.134 280.600
261.504 257.200
260.873 268.400
260.243 264.200
259.612 262.600
258.982 255.600
258.352 256.400
257.720 251.800
257.090 255.800
256.459 240.600
255.829 241.800
255.197 243.800
254.566 253.200
253.936 241.800
253.305 249.600
252.673 239.400
252.042 235.800
251.412 229.400
250.780 227.000
250.149 222.200
249.518 224.800
248.886 214.400
248.255 215.400
247.624 209.600
246.992 210.000
246.360 206.200
245.728 207.800
245.097 197.800
244.466 203.600
243.833 191.800
243.202 193.800
242.569 189.200
241.938 191.800
241.305 188.200
240.674 185.200
240.041 181.200
239.410 168.200
238.777 181.600
238.145 191.600
237.512 170.800
236.881 178.000
236.248 169.600
235.616 175.800
234.983 161.000
234.351 166.000
233.718 171.000
233.085 156.000
232.453 160.800
231.820 157.800
231.186 163.000
230.554 150.000
229.921 159.200
229.289 165.200
228.655 154.400
228.022 158.800
227.390 159.800
226.756 160.600
226.123 160.400
225.489 154.600
224.856 147.200
224.223 156.200
223.589 155.800
222.955 160.400
222.323 152.600
221.689 156.600
221.055 152.600
220.421 156.800
219.788 153.400
219.154 151.800
218.520 148.200
217.886 147.600
217.252 154.200
216.618 150.800
215.985 134.800
215.350 150.800
214.716 148.200
214.082 149.600
213.447 146.000
212.813 145.200
212.178 140.200
