834.788 375.600
834.204 388.000
833.621 366.400
833.037 380.800
832.453 382.000
831.870 393.800
831.286 397.000
830.702 400.000
830.118 388.200
829.535 384.600
828.950 385.000
828.367 384.800
827.782 366.800
827.198 382.000
826.615 377.000
826.030 378.400
825.446 398.400
824.861 394.500
824.277 383.600
823.692 378.200
823.109 362.400
822.523 380.000
821.940 387.000
821.354 393.000
820.770 376.800
820.185 383.800
819.601 379.800
819.016 396.600
818.431 379.200
817.846 377.800
817.261 368.200
816.677 394.400
816.091 378.200
815.506 375.400
814.922 382.400
814.336 372.800
813.750 395.000
813.166 385.000
812.580 387.000
811.995 386.800
811.410 377.800
810.824 383.000
810.239 379.200
809.653 372.200
809.068 366.400
808.482 379.600
807.896 383.600
807.310 380.600
806.724 375.000
806.139 373.800
805.553 385.400
804.967 371.400
804.381 390.600
803.795 372.200
803.209 396.600
802.624 371.800
802.037 367.200
801.451 381.600
800.865 368.600
800.278 376.600
799.692 381.400
799.105 370.200
798.519 381.800
797.932 377.400
797.346 387.600
796.759 380.400
796.173 382.200
795.586 374.400
794.999 381.600
794.412 371.000
793.826 374.000
793.239 372.000
792.652 382.400
792.065 381.400
791.478 374.800
790.891 383.200
790.303 381.800
789.716 376.800
789.129 380.400
788.542 365.800
787.955 374.200
787.368 376.000
786.781 381.400
786.192 375.000
785.605 374.000
785.018 372.400
784.430 376.800
783.842 380.400
783.254 372.600
782.667 367.000
782.079 373.600
781.491 383.200
780.903 367.800
780.316 363.000
779.727 366.000
779.139 371.600
778.551 379.000
777.963 383.800
777.375 386.600
776.787 382.200
776.198 376.200
775.610 373.400
775.022 381.600
774.433 362.200
773.845 372.400
773.256 362.600
772.668 377.600
772.079 372.400
771.491 363.800
770.901 376.200
770.313 372.800
769.724 369.800
769.136 369.400
768.546 370.800
767.958 376.200
767.368 373.200
766.780 372.200
766.190 372.000
765.602 364.800
765.012 374.000
764.422 374.400
763.834 368.600
763.244 368.600
762.655 372.600
762.066 375.200
761.476 363.800
760.887 379.800
760.297 376.600
759.707 366.400
759.117 370.800
758.528 376.400
757.938 388.400
757.348 373.000
756.759 378.200
756.169 382.600
755.578 380.200
754.988 377.400
754.398 378.200
753.809 370.600
753.218 372.000
752.628 370.000
752.037 367.200
751.447 384.000
750.858 379.400
750.267 380.400
749.676 377.400
749.086 381.000
748.495 377.800
747.904 379.200
747.314 377.600
746.723 371.800
746.132 375.800
745.541 379.200
744.950 365.400
744.360 378.200
743.769 375.600
743.178 382.800
742.587 381.800
741.996 376.600
741.404 366.200
740.813 376.800
740.222 396.400
739.631 380.200
739.040 369.800
738.449 381.400
737.857 370.800
737.266 384.200
736.674 364.800
736.083 370.200
735.490 373.000
734.899 388.600
734.307 376.400
733.716 388.600
733.124 384.800
732.533 387.600
731.940 368.600
731.348 388.000
730.756 375.000
730.165 370.600
729.572 370.800
728.980 372.000
728.388 376.800
727.796 377.600
727.203 374.400
726.611 379.600
726.019 384.400
725.426 374.600
724.834 374.000
724.242 373.600
723.648 375.600
723.056 387.000
722.464 375.200
721.870 395.400
721.278 381.200
720.685 384.000
720.092 375.400
719.500 392.200
718.906 391.000
718.314 389.600
717.720 378.200
717.127 369.200
716.534 379.200
715.941 388.400
715.347 387.400
714.755 380.000
714.161 382.000
713.568 376.800
712.974 392.800
712.380 376.800
711.787 380.800
711.193 392.000
710.600 393.400
710.006 365.200
709.412 369.200
708.819 382.600
708.224 388.200
707.631 383.800
707.037 399.800
706.443 394.800
705.848 380.800
705.255 394.200
704.660 384.800
704.066 390.200
703.472 388.000
702.878 399.000
702.283 366.600
701.689 384.800
701.095 390.400
700.500 393.000
699.906 389.600
699.311 394.600
698.716 392.200
698.122 399.000
697.527 397.400
696.932 410.200
696.337 398.400
695.742 404.800
695.147 389.200
694.552 408.200
693.957 394.800
693.363 405.400
692.768 401.200
692.173 416.000
691.578 403.800
690.982 395.600
690.387 403.000
689.791 414.200
689.196 401.400
688.601 406.600
688.005 398.000
687.410 408.400
686.814 407.000
686.218 401.800
685.623 418.600
685.027 422.600
684.431 417.600
683.835 423.800
683.239 420.000
682.643 427.400
682.047 426.200
681.451 427.600
680.855 419.000
680.259 422.200
679.663 428.800
679.066 420.600
678.470 425.600
677.874 429.600
677.278 442.800
676.682 420.600
676.084 439.400
675.488 438.800
674.892 421.200
674.296 431.000
673.698 437.000
673.102 444.200
672.505 447.600
671.908 459.200
671.311 428.400
670.715 448.400
670.117 454.000
669.520 452.400
668.924 444.600
668.326 444.600
667.729 446.000
667.132 444.800
666.534 447.800
665.937 439.000
665.339 430.800
664.743 443.600
664.146 457.200
663.548 438.400
662.950 427.400
662.352 439.200
661.755 441.400
661.157 409.600
660.560 428.000
659.961 431.800
659.364 446.200
658.766 435.000
658.168 416.800
657.570 428.400
656.971 423.200
656.374 424.200
655.775 413.000
655.178 416.400
654.579 411.200
653.980 415.600
653.383 401.200
652.784 390.600
652.185 399.000
651.588 405.400
650.989 407.400
650.390 405.200
649.792 405.600
649.193 414.200
648.594 399.600
647.996 393.200
647.397 402.400
646.798 410.800
646.199 407.400
645.599 409.400
645.001 398.200
644.402 409.400
643.803 399.200
643.203 401.000
642.604 393.400
642.006 394.200
641.406 408.600
640.806 398.600
640.207 396.000
639.607 404.400
639.008 407.600
638.408 400.000
637.808 394.400
637.210 397.200
636.610 389.000
636.010 397.800
635.410 391.000
634.810 388.600
634.211 384.800
633.611 383.200
633.011 392.200
632.411 381.600
631.810 381.400
631.210 377.000
630.610 371.800
630.010 367.200
629.410 386.400
628.808 381.600
628.208 383.800
627.608 349.800
627.007 385.000
626.407 390.400
625.807 365.200
625.206 376.000
624.606 382.400
624.004 378.200
623.403 384.800
622.803 365.000
622.202 378.200
621.601 371.200
620.999 367.000
620.399 396.400
619.798 388.400
619.197 378.800
618.596 388.800
617.994 376.800
617.393 360.200
616.792 366.600
616.190 376.800
615.589 387.200
614.988 371.000
614.385 365.600
613.784 374.400
613.183 367.600
612.581 381.200
611.979 375.000
611.378 363.800
610.776 387.600
610.174 378.600
609.572 374.600
608.970 377.600
608.369 370.000
607.766 372.000
607.164 373.400
606.561 366.800
605.960 369.000
605.357 385.800
604.755 370.400
604.152 370.000
603.551 365.000
602.948 357.000
602.346 361.800
601.743 368.600
601.139 361.800
600.537 364.600
599.934 360.600
599.332 361.400
598.729 360.400
598.126 356.000
597.524 361.800
596.920 368.400
596.318 362.400
595.715 365.000
595.111 363.400
594.509 363.200
593.905 357.400
593.301 355.800
592.698 366.800
592.095 364.000
591.492 346.600
590.888 354.000
590.285 354.800
589.681 358.400
589.078 356.200
588.474 365.400
587.870 353.600
587.267 353.600
586.663 353.400
586.059 365.000
585.455 346.400
584.851 348.000
584.247 360.600
583.644 353.400
583.039 351.800
582.435 354.600
581.831 333.200
581.227 359.200
580.622 351.400
580.018 350.800
579.413 345.200
578.809 333.400
578.204 343.400
577.600 341.000
576.995 348.600
576.390 356.400
575.786 339.400
575.181 333.200
574.576 353.200
573.972 333.800
573.367 350.200
572.762 342.600
572.157 336.000
571.552 333.600
570.947 338.400
570.342 346.200
569.737 344.400
569.131 339.800
568.526 345.200
567.921 339.400
567.315 346.000
566.710 346.000
566.105 340.200
565.498 344.200
564.893 332.200
564.288 336.800
563.682 342.200
563.077 336.400
562.470 319.000
561.865 329.400
561.259 332.400
560.654 334.600
560.047 335.200
559.441 328.400
558.835 342.600
558.228 331.600
557.623 345.600
557.017 333.600
556.410 333.800
555.804 319.400
555.198 334.000
554.591 327.400
553.985 340.000
553.379 334.800
552.772 336.200
552.165 337.800
551.558 336.800
550.952 333.000
550.344 342.400
549.738 322.400
549.131 331.000
548.524 334.200
547.918 327.200
547.310 325.600
546.704 339.400
546.096 354.000
545.489 331.200
544.882 331.600
544.274 336.600
543.668 339.000
543.060 328.600
542.453 323.200
541.845 318.800
541.237 318.000
540.630 346.800
540.022 330.200
539.415 338.200
538.807 324.200
538.199 336.600
537.592 339.200
536.984 331.200
536.376 331.200
535.768 323.000
535.160 334.600
534.552 325.000
533.943 330.800
533.336 336.200
532.728 328.200
532.119 335.200
531.510 338.000
530.903 341.800
530.294 324.000
529.686 334.600
529.077 332.200
528.468 331.400
527.859 339.600
527.252 338.200
526.643 330.200
526.034 326.000
525.425 331.000
524.816 326.200
524.207 342.800
523.598 328.200
522.989 333.800
522.380 342.000
521.772 335.600
521.163 331.800
520.553 337.400
519.944 323.000
519.335 335.600
518.725 333.800
518.116 336.000
517.507 329.800
516.897 333.200
516.288 337.200
515.678 323.800
515.069 328.600
514.458 332.400
513.848 333.200
513.238 332.200
512.629 333.300
512.019 334.400
511.409 330.600
510.799 324.600
510.189 324.200
509.579 340.600
508.968 335.200
508.358 334.000
507.748 336.600
507.138 343.200
506.528 344.000
505.918 326.600
505.307 339.200
504.696 333.400
504.086 330.000
503.476 349.600
502.864 344.800
502.254 340.600
501.644 333.000
501.032 341.800
500.421 350.200
499.811 330.400
499.200 334.400
498.589 349.200
497.978 347.800
497.367 352.200
496.755 353.000
496.145 337.800
495.533 361.200
494.922 345.600
494.311 363.600
493.699 341.800
493.088 350.800
492.476 346.400
491.865 357.200
491.253 374.000
490.641 376.600
490.029 370.000
489.418 370.400
488.806 382.800
488.194 385.600
487.582 405.200
486.971 406.200
486.358 415.600
485.747 408.200
485.134 419.000
484.523 434.600
483.910 455.600
483.298 478.000
482.686 480.000
482.073 501.200
481.461 540.000
480.848 576.600
480.235 599.600
479.624 640.200
479.011 689.400
478.398 734.400
477.786 780.000
477.173 810.200
476.560 833.400
475.948 843.400
475.334 837.600
474.721 802.800
474.108 769.800
473.496 726.200
472.882 700.000
472.269 651.800
471.655 619.400
471.043 593.400
470.430 550.800
469.816 537.200
469.202 505.200
468.589 496.600
467.975 485.000
467.363 460.400
466.749 448.600
466.135 440.200
465.521 433.400
464.907 432.400
464.293 419.400
463.680 414.000
463.066 410.000
462.452 412.200
461.838 403.400
461.223 395.400
460.609 388.800
459.996 389.000
459.382 379.200
458.768 381.600
458.154 357.200
457.538 373.400
456.924 379.800
456.309 364.400
455.695 354.800
455.080 364.000
454.466 362.800
453.851 348.600
453.237 344.400
452.622 356.400
452.008 338.600
451.393 335.000
450.778 345.200
450.162 345.600
449.547 343.400
448.932 334.000
448.318 344.800
447.703 341.400
447.088 323.200
446.472 331.400
445.856 336.000
445.241 321.600
444.626 334.600
444.010 340.000
443.395 338.400
442.780 338.200
442.164 326.000
441.548 328.400
440.932 324.600
440.317 319.400
439.700 331.000
439.085 340.000
438.469 338.400
437.853 326.800
437.237 327.200
436.622 327.600
436.005 332.200
435.389 324.600
434.773 327.600
434.156 330.000
433.541 335.200
432.923 341.200
432.308 342.600
431.690 327.600
431.075 330.200
430.457 337.600
429.841 321.600
429.225 335.000
428.608 336.800
427.992 338.800
427.374 345.600
426.757 342.600
426.141 335.200
425.523 338.600
424.907 340.200
424.289 318.000
423.673 342.400
423.055 340.000
422.438 338.200
421.821 347.000
421.203 337.800
420.587 352.600
419.969 348.400
419.351 338.000
418.734 349.200
418.116 354.800
417.498 349.000
416.882 347.000
416.263 354.400
415.645 355.200
415.027 340.800
414.410 357.600
413.792 353.600
413.174 340.000
412.555 359.600
411.938 354.200
411.320 341.600
410.702 344.200
410.083 356.400
409.466 348.800
408.847 347.200
408.229 359.800
407.610 348.600
406.991 351.200
406.373 361.200
405.754 353.800
405.136 359.600
404.518 355.600
403.899 357.200
403.280 354.000
402.661 355.000
402.042 351.800
401.423 347.000
400.804 357.200
400.185 367.200
399.566 339.200
398.947 353.600
398.328 358.400
397.708 352.800
397.089 375.400
396.470 370.400
395.850 351.600
395.231 355.800
394.612 341.800
393.992 352.200
393.373 363.800
392.753 344.000
392.134 353.200
391.514 355.600
390.893 365.800
390.273 346.800
389.654 352.000
389.034 345.600
388.414 338.400
387.794 338.400
387.174 344.000
386.553 344.800
385.933 348.400
385.313 360.800
384.693 360.200
384.072 362.600
383.452 348.800
382.832 362.800
382.212 355.600
381.590 359.800
380.970 366.600
380.350 362.200
379.729 382.000
379.108 383.000
378.487 384.600
377.867 397.000
377.245 395.200
376.625 408.400
376.004 414.400
375.382 422.600
374.762 428.200
374.141 432.600
373.519 440.800
372.898 444.200
372.276 457.200
371.655 466.800
371.033 463.600
370.412 464.600
369.791 460.600
369.169 465.400
368.548 482.400
367.926 484.200
367.305 483.800
366.682 483.600
366.061 496.000
365.439 494.600
364.818 490.000
364.195 519.800
363.573 518.200
362.951 531.200
362.329 533.200
361.707 539.800
361.084 561.200
360.462 570.400
359.840 585.000
359.217 599.000
358.596 600.200
357.973 624.000
357.350 637.600
356.728 653.600
356.105 639.000
355.482 679.600
354.860 663.400
354.237 698.600
353.614 714.200
352.991 716.000
352.369 709.600
351.745 757.200
351.122 789.400
350.499 786.600
349.876 817.000
349.253 844.200
348.629 865.600
348.006 882.400
347.382 914.000
346.760 949.200
346.136 964.000
345.513 1023.800
344.889 1084.200
344.265 1145.400
343.641 1221.800
343.018 1329.400
342.395 1462.400
341.771 1638.200
341.147 1833.600
340.523 2010.000
339.899 2163.800
339.275 2313.400
338.651 2383.000
338.027 2383.600
337.403 2354.200
336.778 2240.800
336.154 2093.200
335.530 1949.800
334.905 1839.600
334.281 1707.600
333.657 1589.200
333.032 1453.800
332.408 1344.400
331.783 1243.000
331.159 1183.800
330.534 1084.400
329.909 1023.800
329.285 961.400
328.659 892.600
328.034 840.800
327.409 812.200
326.784 788.000
326.159 748.800
325.535 694.400
324.910 686.800
324.283 639.800
323.658 637.000
323.033 614.000
322.408 592.000
321.783 581.000
321.157 555.600
320.531 550.200
319.906 549.800
319.281 526.600
318.654 529.600
318.029 530.400
317.403 508.000
316.777 516.600
316.151 519.000
315.526 515.600
314.899 517.800
314.273 515.200
313.648 516.200
313.021 493.400
312.395 511.600
311.769 511.800
311.142 513.000
310.516 492.400
309.889 498.000
309.263 502.600
308.637 511.400
308.010 503.600
307.384 503.200
306.757 501.800
306.131 503.200
305.503 486.000
304.877 497.600
304.249 492.200
303.623 505.000
302.996 496.800
302.369 497.400
301.742 502.600
301.115 506.200
300.487 512.200
299.861 506.800
299.233 510.200
298.605 527.600
297.979 534.000
297.351 526.800
296.724 532.400
296.096 533.000
295.468 538.000
294.841 561.800
294.213 566.800
293.585 578.000
292.958 600.400
292.330 589.800
291.702 612.400
291.075 615.400
290.446 649.400
289.818 637.400
289.189 644.400
288.562 653.400
287.934 640.600
287.305 628.600
286.677 629.200
286.049 604.000
285.421 587.000
284.792 600.200
284.163 582.400
283.534 572.000
282.907 541.000
282.278 538.400
281.649 524.600
281.020 521.800
280.391 505.800
279.762 492.800
279.133 498.000
278.505 517.800
277.876 493.200
277.247 479.000
276.618 469.600
275.989 492.800
275.359 477.200
274.730 491.800
274.101 474.200
273.471 449.600
272.842 475.800
272.212 455.000
271.583 452.000
270.953 454.400
270.324 452.600
269.694 444.200
269.065 436.800
268.435 439.200
267.805 433.200
267.175 440.600
266.545 435.600
265.916 439.800
265.284 444.600
264.655 443.000
264.025 425.400
263.395 437.000
262.764 421.600
262.134 434.600
261.504 423.400
260.873 443.200
260.243 419.400
259.612 418.400
258.982 410.000
258.352 416.200
257.720 419.800
257.090 427.600
256.459 418.200
255.829 419.400
255.197 417.200
254.566 410.800
253.936 414.800
253.305 393.800
252.673 414.800
252.042 399.000
251.412 397.000
250.780 388.600
250.149 392.000
249.518 389.800
248.886 378.200
248.255 387.600
247.624 381.600
246.992 368.000
246.360 367.800
245.728 367.000
245.097 358.400
244.466 351.600
243.833 359.000
243.202 343.400
242.569 340.600
241.938 353.200
241.305 330.400
240.674 343.400
240.041 332.400
239.410 344.000
238.777 320.400
238.145 329.600
237.512 319.000
236.881 325.400
236.248 331.400
235.616 322.400
234.983 317.200
234.351 320.800
233.718 310.800
233.085 304.200
232.453 311.200
231.820 316.800
231.186 295.000
230.554 297.000
229.921 287.000
229.289 293.000
228.655 305.400
228.022 299.600
227.390 302.200
226.756 289.600
226.123 273.800
225.489 304.200
224.856 297.400
224.223 294.400
223.589 285.000
222.955 302.400
222.323 297.000
221.689 292.400
221.055 290.400
220.421 293.200
219.788 291.600
219.154 285.200
218.520 277.400
217.886 290.200
217.252 284.800
216.618 281.800
215.985 279.800
215.350 272.400
214.716 278.000
214.082 278.200
213.447 265.600
212.813 267.600
212.178 268.000
