834.788 162.000
834.204 155.600
833.621 159.600
833.037 159.000
832.453 165.800
831.870 164.800
831.286 160.600
830.702 159.200
830.118 155.800
829.535 161.800
828.950 162.400
828.367 165.200
827.782 159.800
827.198 164.800
826.615 167.600
826.030 163.400
825.446 161.200
824.861 164.000
824.277 165.200
823.692 161.600
823.109 166.200
822.523 167.000
821.940 162.000
821.354 165.200
820.770 165.000
820.185 158.200
819.601 165.200
819.016 163.000
818.431 163.800
817.846 171.800
817.261 157.000
816.677 155.800
816.091 152.800
815.506 164.200
814.922 162.000
814.336 155.600
813.750 160.200
813.166 167.400
812.580 165.200
811.995 161.800
811.410 169.200
810.824 163.800
810.239 167.600
809.653 157.400
809.068 162.800
808.482 162.000
807.896 164.200
807.310 165.200
806.724 161.800
806.139 164.400
805.553 160.200
804.967 164.200
804.381 161.400
803.795 163.200
803.209 168.600
802.624 157.200
802.037 159.600
801.451 163.200
800.865 166.000
800.278 169.400
799.692 155.000
799.105 165.600
798.519 173.400
797.932 169.800
797.346 162.400
796.759 159.400
796.173 165.600
795.586 163.600
794.999 156.600
794.412 159.600
793.826 160.000
793.239 168.400
792.652 166.200
792.065 159.000
791.478 164.400
790.891 169.000
790.303 159.000
789.716 165.000
789.129 151.800
788.542 171.000
787.955 163.000
787.368 164.000
786.781 158.000
786.192 164.200
785.605 156.400
785.018 167.200
784.430 165.600
783.842 168.600
783.254 164.000
782.667 167.800
782.079 170.000
781.491 162.600
780.903 164.400
780.316 168.000
779.727 154.600
779.139 159.600
778.551 160.800
777.963 163.400
777.375 161.200
776.787 164.800
776.198 172.800
775.610 160.400
775.022 169.800
774.433 162.400
773.845 169.600
773.256 167.600
772.668 163.600
772.079 160.800
771.491 165.600
770.901 166.000
770.313 171.000
769.724 169.000
769.136 170.600
768.546 169.600
767.958 172.000
767.368 174.800
766.780 166.000
766.190 173.200
765.602 163.000
765.012 165.800
764.422 167.400
763.834 165.200
763.244 174.600
762.655 161.000
762.066 161.600
761.476 169.800
760.887 169.400
760.297 166.800
759.707 167.200
759.117 164.600
758.528 170.600
757.938 173.600
757.348 177.200
756.759 168.600
756.169 172.600
755.578 172.600
754.988 169.400
754.398 171.600
753.809 181.000
753.218 172.000
752.628 171.800
752.037 169.400
751.447 160.200
750.858 161.000
750.267 184.800
749.676 178.200
749.086 178.000
748.495 177.800
747.904 177.600
747.314 176.800
746.723 180.200
746.132 180.000
745.541 176.200
744.950 180.000
744.360 177.800
743.769 174.600
743.178 181.600
742.587 184.000
741.996 191.000
741.404 178.000
740.813 186.200
740.222 173.800
739.631 182.000
739.040 179.600
738.449 183.600
737.857 175.400
737.266 172.600
736.674 176.000
736.083 185.800
735.490 174.800
734.899 164.000
734.307 172.000
733.716 171.200
733.124 182.200
732.533 175.600
731.940 177.800
731.348 171.800
730.756 174.600
730.165 182.800
729.572 179.400
728.980 179.800
728.388 181.600
727.796 171.800
727.203 176.400
726.611 179.000
726.019 176.800
725.426 170.200
724.834 173.800
724.242 180.200
723.648 170.800
723.056 180.800
722.464 179.600
721.870 179.600
721.278 173.200
720.685 174.000
720.092 183.000
719.500 197.400
718.906 183.400
718.314 180.800
717.720 185.800
717.127 197.200
716.534 182.600
715.941 186.000
715.347 184.000
714.755 190.200
714.161 190.400
713.568 191.400
712.974 189.600
712.380 190.200
711.787 185.600
711.193 194.400
710.600 193.000
710.006 199.400
709.412 196.400
708.819 201.600
708.224 209.400
707.631 191.400
707.037 208.200
706.443 200.600
705.848 207.200
705.255 212.200
704.660 216.800
704.066 216.400
703.472 215.200
702.878 219.800
702.283 222.400
701.689 207.200
701.095 227.000
700.500 230.200
699.906 229.400
699.311 223.000
698.716 218.200
698.122 235.600
697.527 240.800
696.932 227.400
696.337 225.200
695.742 228.800
695.147 226.200
694.552 233.800
693.957 241.800
693.363 241.000
692.768 242.000
692.173 235.200
691.578 240.600
690.982 236.800
690.387 241.800
689.791 234.200
689.196 242.200
688.601 244.400
688.005 236.800
687.410 248.800
686.814 253.200
686.218 248.800
685.623 237.800
685.027 248.200
684.431 253.800
683.835 252.200
683.239 245.600
682.643 259.800
682.047 260.200
681.451 257.600
680.855 261.000
680.259 272.200
679.663 269.400
679.066 279.000
678.470 266.000
677.874 297.400
677.278 300.000
676.682 292.400
676.084 309.000
675.488 312.600
674.892 313.000
674.296 319.800
673.698 320.000
673.102 335.600
672.505 328.600
671.908 329.200
671.311 331.000
670.715 337.800
670.117 337.400
669.520 328.600
668.924 330.400
668.326 313.200
667.729 313.000
667.132 307.600
666.534 308.000
665.937 304.800
665.339 289.400
664.743 296.000
664.146 291.800
663.548 279.200
662.950 270.200
662.352 268.800
661.755 251.600
661.157 270.000
660.560 256.600
659.961 243.800
659.364 247.800
658.766 244.000
658.168 248.400
657.570 242.400
656.971 241.400
656.374 233.400
655.775 237.000
655.178 235.400
654.579 225.400
653.980 245.200
653.383 231.400
652.784 224.400
652.185 222.200
651.588 230.000
650.989 229.200
650.390 225.400
649.792 235.200
649.193 231.800
648.594 240.000
647.996 224.200
647.397 231.600
646.798 222.400
646.199 226.400
645.599 222.600
645.001 227.600
644.402 226.800
643.803 224.200
643.203 226.000
642.604 229.000
642.006 219.400
641.406 217.400
640.806 231.200
640.207 223.600
639.607 217.600
639.008 221.800
638.408 210.000
637.808 216.000
637.210 214.600
636.610 218.000
636.010 206.200
635.410 206.000
634.810 207.400
634.211 216.400
633.611 209.400
633.011 219.000
632.411 210.200
631.810 213.600
631.210 210.800
630.610 201.400
630.010 210.200
629.410 212.200
628.808 201.600
628.208 209.000
627.608 189.000
627.007 212.200
626.407 200.800
625.807 207.000
625.206 217.400
624.606 210.600
624.004 207.600
623.403 215.400
622.803 210.600
622.202 211.400
621.601 215.200
620.999 204.200
620.399 205.800
619.798 209.200
619.197 214.600
618.596 212.200
617.994 212.800
617.393 203.800
616.792 205.400
616.190 206.400
615.589 205.000
614.988 208.400
614.385 206.000
613.784 207.200
613.183 204.800
612.581 205.200
611.979 203.200
611.378 201.000
610.776 206.200
610.174 200.400
609.572 193.600
608.970 197.600
608.369 198.000
607.766 206.400
607.164 202.800
606.561 200.200
605.960 207.200
605.357 199.800
604.755 196.000
604.152 202.000
603.551 201.200
602.948 204.800
602.346 202.800
601.743 195.400
601.139 211.000
600.537 195.400
599.934 203.000
599.332 201.600
598.729 196.000
598.126 187.600
597.524 200.400
596.920 197.600
596.318 184.200
595.715 198.000
595.111 192.600
594.509 195.800
593.905 198.200
593.301 196.000
592.698 193.200
592.095 183.000
591.492 187.600
590.888 172.800
590.285 187.400
589.681 183.200
589.078 179.200
588.474 177.600
587.870 189.000
587.267 179.400
586.663 181.400
586.059 181.200
585.455 182.600
584.851 183.400
584.247 181.800
583.644 172.200
583.039 175.600
582.435 184.400
581.831 172.600
581.227 175.000
580.622 174.400
580.018 176.800
579.413 172.400
578.809 178.000
578.204 167.600
577.600 177.600
576.995 172.200
576.390 164.200
575.786 165.200
575.181 171.200
574.576 171.400
573.972 171.000
573.367 181.400
572.762 173.600
572.157 170.600
571.552 166.800
570.947 170.800
570.342 172.400
569.737 163.600
569.131 164.800
568.526 172.800
567.921 164.800
567.315 165.000
566.710 168.000
566.105 167.200
565.498 168.400
564.893 163.800
564.288 163.000
563.682 166.000
563.077 164.200
562.470 151.200
561.865 166.400
561.259 164.200
560.654 159.600
560.047 153.800
559.441 164.200
558.835 160.000
558.228 161.600
557.623 162.800
557.017 167.400
556.410 165.800
555.804 156.000
555.198 168.600
554.591 158.000
553.985 164.800
553.379 174.200
552.772 161.600
552.165 162.400
551.558 159.400
550.952 162.600
550.344 156.400
549.738 168.000
549.131 165.200
548.524 156.400
547.918 164.600
547.310 170.400
546.704 155.200
546.096 159.000
545.489 162.400
544.882 155.400
544.274 153.800
543.668 160.600
543.060 161.400
542.453 155.000
541.845 166.000
541.237 170.200
540.630 164.800
540.022 167.200
539.415 160.600
538.807 160.600
538.199 158.800
537.592 169.000
536.984 164.600
536.376 153.400
535.768 157.400
535.160 152.600
534.552 160.400
533.943 158.000
533.336 159.600
532.728 154.800
532.119 154.200
531.510 162.600
530.903 155.800
530.294 161.600
529.686 161.200
529.077 164.600
528.468 160.600
527.859 162.400
527.252 157.600
526.643 163.600
526.034 163.400
525.425 156.800
524.816 161.600
524.207 164.600
523.598 161.400
522.989 164.000
522.380 162.800
521.772 155.600
521.163 161.400
520.553 155.000
519.944 159.800
519.335 164.000
518.725 165.800
518.116 152.200
517.507 160.600
516.897 162.200
516.288 157.200
515.678 158.800
515.069 160.400
514.458 153.600
513.848 163.600
513.238 168.400
512.629 166.200
512.019 161.600
511.409 161.400
510.799 162.400
510.189 164.000
509.579 161.600
508.968 161.000
508.358 165.400
507.748 153.800
507.138 161.400
506.528 160.800
505.918 161.800
505.307 169.400
504.696 167.000
504.086 161.600
503.476 165.200
502.864 166.000
502.254 164.600
501.644 154.000
501.032 168.400
500.421 161.200
499.811 173.000
499.200 165.400
498.589 166.000
497.978 174.000
497.367 166.800
496.755 169.800
496.145 169.000
495.533 166.600
494.922 167.000
494.311 166.600
493.699 162.000
493.088 161.400
492.476 159.600
491.865 162.200
491.253 161.800
490.641 172.600
490.029 165.200
489.418 171.800
488.806 176.600
488.194 164.400
487.582 167.800
486.971 175.800
486.358 173.200
485.747 168.600
485.134 166.600
484.523 174.400
483.910 180.600
483.298 178.400
482.686 177.600
482.073 176.600
481.461 183.600
480.848 185.400
480.235 183.600
479.624 183.400
479.011 182.400
478.398 183.000
477.786 196.000
477.173 193.200
476.560 199.200
475.948 192.600
475.334 195.000
474.721 197.000
474.108 193.000
473.496 201.600
472.882 198.000
472.269 185.600
471.655 187.400
471.043 183.800
470.430 183.400
469.816 189.200
469.202 185.200
468.589 187.400
467.975 180.200
467.363 186.400
466.749 170.800
466.135 176.400
465.521 168.200
464.907 176.200
464.293 163.000
463.680 173.000
463.066 176.600
462.452 169.200
461.838 156.600
461.223 170.600
460.609 175.800
459.996 167.400
459.382 177.600
458.768 169.800
458.154 168.800
457.538 172.400
456.924 165.200
456.309 172.600
455.695 156.800
455.080 170.000
454.466 167.400
453.851 160.200
453.237 164.200
452.622 160.200
452.008 162.800
451.393 171.400
450.778 159.800
450.162 158.000
449.547 166.000
448.932 169.600
448.318 171.200
447.703 158.800
447.088 163.800
446.472 163.600
445.856 165.600
445.241 166.400
444.626 161.000
444.010 169.000
443.395 171.200
442.780 167.800
442.164 174.200
441.548 170.000
440.932 168.600
440.317 161.600
439.700 167.800
439.085 175.200
438.469 174.200
437.853 176.000
437.237 165.400
436.622 164.200
436.005 177.800
435.389 176.400
434.773 173.400
434.156 181.800
433.541 180.400
432.923 173.800
432.308 180.800
431.690 186.800
431.075 184.200
430.457 184.200
429.841 192.600
429.225 189.800
428.608 183.200
427.992 186.000
427.374 190.800
426.757 195.600
426.141 193.200
425.523 186.400
424.907 195.400
424.289 184.600
423.673 181.200
423.055 190.200
422.438 194.800
421.821 190.800
421.203 183.600
420.587 202.800
419.969 201.400
419.351 194.200
418.734 205.200
418.116 200.400
417.498 199.800
416.882 196.800
416.263 195.600
415.645 203.200
415.027 206.800
414.410 202.000
413.792 213.000
413.174 207.800
412.555 203.200
411.938 199.600
411.320 203.800
410.702 206.600
410.083 201.200
409.466 206.800
408.847 204.800
408.229 198.200
407.610 203.200
406.991 210.600
406.373 204.000
405.754 214.600
405.136 213.400
404.518 207.200
403.899 204.400
403.280 195.200
402.661 212.600
402.042 186.400
401.423 208.200
400.804 202.400
400.185 207.000
399.566 204.600
398.947 198.400
398.328 205.600
397.708 203.400
397.089 190.200
396.470 201.000
395.850 194.600
395.231 203.200
394.612 194.200
393.992 197.600
393.373 201.400
392.753 212.200
392.134 198.600
391.514 194.000
390.893 194.200
390.273 198.000
389.654 188.000
389.034 192.800
388.414 193.800
387.794 207.600
387.174 194.600
386.553 191.600
385.933 180.000
385.313 202.200
384.693 194.000
384.072 203.600
383.452 203.600
382.832 202.000
382.212 207.400
381.590 205.600
380.970 223.800
380.350 231.000
379.729 235.400
379.108 247.600
378.487 256.400
377.867 265.600
377.245 269.000
376.625 289.600
376.004 290.600
375.382 296.400
374.762 304.600
374.141 300.200
373.519 306.200
372.898 312.000
372.276 319.800
371.655 315.600
371.033 339.800
370.412 342.000
369.791 354.600
369.169 351.600
368.548 364.800
367.926 361.800
367.305 372.600
366.682 389.600
366.061 390.200
365.439 407.600
364.818 413.400
364.195 429.800
363.573 429.600
362.951 431.800
362.329 441.000
361.707 442.400
361.084 468.200
360.462 485.800
359.840 500.400
359.217 511.600
358.596 546.200
357.973 548.400
357.350 574.800
356.728 559.000
356.105 578.800
355.482 601.800
354.860 590.400
354.237 621.000
353.614 604.800
352.991 626.200
352.369 642.000
351.745 675.400
351.122 680.200
350.499 701.600
349.876 725.800
349.253 741.200
348.629 752.400
348.006 773.200
347.382 814.800
346.760 840.000
346.136 898.200
345.513 997.400
344.889 1044.200
344.265 1168.600
343.641 1343.600
343.018 1586.800
342.395 1910.400
341.771 2395.800
341.147 3012.600
340.523 3539.600
339.899 4009.400
339.275 4194.400
338.651 4026.600
338.027 3629.000
337.403 3110.200
336.778 2655.600
336.154 2293.800
335.530 1979.800
334.905 1737.200
334.281 1577.800
333.657 1379.800
333.032 1256.200
332.408 1088.200
331.783 979.200
331.159 890.400
330.534 811.200
329.909 742.000
329.285 685.400
328.659 638.400
328.034 598.600
327.409 544.400
326.784 524.800
326.159 493.000
325.535 463.200
324.910 438.200
324.283 427.400
323.658 399.200
323.033 387.200
322.408 382.600
321.783 372.600
321.157 376.000
320.531 360.800
319.906 359.400
319.281 353.800
318.654 363.400
318.029 364.400
317.403 358.400
316.777 360.400
316.151 363.400
315.526 366.400
314.899 374.000
314.273 354.800
313.648 368.000
313.021 372.000
312.395 377.000
311.769 368.800
311.142 362.600
310.516 381.400
309.889 365.400
309.263 374.400
308.637 363.000
308.010 366.800
307.384 379.200
306.757 351.600
306.131 376.800
305.503 354.600
304.877 366.600
304.249 369.600
303.623 374.200
302.996 364.200
302.369 374.200
301.742 379.000
301.115 390.200
300.487 384.200
299.861 388.200
299.233 406.000
298.605 414.000
297.979 418.600
297.351 430.400
296.724 460.800
296.096 470.200
295.468 499.000
294.841 506.600
294.213 553.400
293.585 587.600
292.958 622.600
292.330 670.400
291.702 715.400
291.075 769.400
290.446 834.000
289.818 875.800
289.189 910.200
288.562 890.000
287.934 889.600
287.305 798.600
286.677 771.600
286.049 721.400
285.421 669.600
284.792 603.000
284.163 573.600
283.534 527.800
282.907 480.800
282.278 474.600
281.649 469.000
281.020 459.400
280.391 440.600
279.762 430.000
279.133 423.400
278.505 419.600
277.876 418.600
277.247 404.600
276.618 398.800
275.989 382.200
275.359 384.400
274.730 377.200
274.101 378.400
273.471 370.800
272.842 349.000
272.212 336.200
271.583 331.600
270.953 323.200
270.324 320.600
269.694 316.400
269.065 303.800
268.435 302.400
267.805 296.000
267.175 291.400
266.545 300.200
265.916 301.200
265.284 299.600
264.655 288.200
264.025 295.800
263.395 293.400
262.764 282.000
262.134 289.400
261.504 285.800
260.873 287.200
260.243 281.600
259.612 286.200
258.982 281.800
258.352 293.000
257.720 277.000
257.090 281.600
256.459 276.600
255.829 290.600
255.197 278.200
254.566 275.600
253.936 290.200
253.305 289.600
252.673 288.000
252.042 287.400
251.412 267.600
250.780 284.800
250.149 279.600
249.518 256.800
248.886 273.600
248.255 246.200
247.624 253.200
246.992 259.400
246.360 248.200
245.728 237.200
245.097 225.400
244.466 223.200
243.833 216.200
243.202 211.800
242.569 214.600
241.938 208.600
241.305 202.200
240.674 194.800
240.041 199.000
239.410 190.600
238.777 189.800
238.145 193.400
237.512 184.000
236.881 192.800
236.248 179.400
235.616 186.800
234.983 175.400
234.351 178.000
233.718 165.000
233.085 181.000
232.453 177.200
231.820 171.400
231.186 173.000
230.554 170.600
229.921 173.600
229.289 169.400
228.655 159.400
228.022 167.600
227.390 168.200
226.756 160.800
226.123 167.200
225.489 163.000
224.856 159.400
224.223 158.000
223.589 162.600
222.955 166.200
222.323 152.600
221.689 164.800
221.055 153.800
220.421 154.800
219.788 164.000
219.154 162.000
218.520 152.200
217.886 168.600
217.252 165.800
216.618 147.600
215.985 151.600
215.350 152.600
214.716 157.600
214.082 155.000
213.447 152.400
212.813 148.400
212.178 140.200
