834.788 659.400
834.204 672.200
833.621 652.800
833.037 647.200
832.453 656.000
831.870 643.000
831.286 660.800
830.702 651.000
830.118 661.400
829.535 643.200
828.950 659.000
828.367 660.600
827.782 648.400
827.198 664.000
826.615 654.600
826.030 665.400
825.446 661.200
824.861 659.400
824.277 651.800
823.692 651.000
823.109 641.800
822.523 661.000
821.940 664.800
821.354 641.200
820.770 651.400
820.185 654.000
819.601 649.400
819.016 667.200
818.431 645.800
817.846 669.600
817.261 673.400
816.677 648.600
816.091 653.200
815.506 646.400
814.922 638.600
814.336 652.800
813.750 654.800
813.166 641.400
812.580 660.600
811.995 651.000
811.410 647.600
810.824 652.800
810.239 654.000
809.653 656.200
809.068 655.800
808.482 654.400
807.896 656.000
807.310 657.000
806.724 655.600
806.139 655.800
805.553 659.400
804.967 650.800
804.381 651.000
803.795 656.000
803.209 640.200
802.624 643.000
802.037 655.200
801.451 662.200
800.865 655.000
800.278 656.800
799.692 651.000
799.105 659.600
798.519 643.400
797.932 663.600
797.346 652.200
796.759 654.200
796.173 658.000
795.586 670.600
794.999 667.200
794.412 652.600
793.826 666.800
793.239 659.600
792.652 647.800
792.065 655.800
791.478 645.200
790.891 661.800
790.303 650.200
789.716 668.200
789.129 641.600
788.542 648.200
787.955 651.400
787.368 672.800
786.781 656.400
786.192 648.000
785.605 639.000
785.018 656.200
784.430 678.200
783.842 659.600
783.254 647.000
782.667 663.600
782.079 658.000
781.491 658.800
780.903 660.400
780.316 670.800
779.727 662.400
779.139 675.800
778.551 652.800
777.963 674.800
777.375 650.600
776.787 664.200
776.198 658.000
775.610 671.800
775.022 655.200
774.433 656.600
773.845 664.200
773.256 664.000
772.668 665.400
772.079 666.600
771.491 670.400
770.901 676.800
770.313 662.000
769.724 660.600
769.136 681.400
768.546 684.800
767.958 669.200
767.368 685.200
766.780 681.800
766.190 677.000
765.602 678.200
765.012 670.400
764.422 672.400
763.834 673.600
763.244 688.600
762.655 693.600
762.066 680.200
761.476 674.000
760.887 689.200
760.297 666.200
759.707 670.200
759.117 687.200
758.528 679.800
757.938 669.000
757.348 678.800
756.759 687.400
756.169 678.000
755.578 690.200
754.988 694.400
754.398 669.200
753.809 692.200
753.218 693.400
752.628 697.200
752.037 694.400
751.447 679.000
750.858 707.000
750.267 698.800
749.676 712.000
749.086 693.600
748.495 703.800
747.904 688.400
747.314 707.000
746.723 690.800
746.132 709.600
745.541 706.600
744.950 702.000
744.360 710.800
743.769 712.200
743.178 690.800
742.587 710.200
741.996 703.000
741.404 716.800
740.813 727.400
740.222 713.000
739.631 711.200
739.040 716.400
738.449 715.000
737.857 724.600
737.266 729.400
736.674 711.000
736.083 722.400
735.490 711.000
734.899 717.800
734.307 701.000
733.716 716.400
733.124 731.400
732.533 720.000
731.940 718.400
731.348 725.600
730.756 714.600
730.165 716.000
729.572 749.000
728.980 749.400
728.388 713.200
727.796 738.000
727.203 724.400
726.611 719.200
726.019 739.200
725.426 739.400
724.834 731.800
724.242 745.800
723.648 750.600
723.056 746.400
722.464 770.600
721.870 761.800
721.278 766.200
720.685 766.200
720.092 763.800
719.500 785.200
718.906 779.400
718.314 790.400
717.720 785.400
717.127 783.000
716.534 792.000
715.941 787.600
715.347 830.200
714.755 823.800
714.161 826.400
713.568 832.000
712.974 840.000
712.380 815.200
711.787 855.600
711.193 858.000
710.600 865.400
710.006 877.400
709.412 890.800
708.819 903.800
708.224 899.400
707.631 909.000
707.037 930.200
706.443 951.800
705.848 953.200
705.255 939.200
704.660 965.800
704.066 975.600
703.472 986.200
702.878 989.000
702.283 987.800
701.689 1005.200
701.095 987.600
700.500 1006.000
699.906 1008.600
699.311 981.600
698.716 1016.800
698.122 991.600
697.527 1002.600
696.932 999.800
696.337 1024.600
695.742 1024.800
695.147 1025.200
694.552 1011.000
693.957 1031.400
693.363 1043.600
692.768 1013.000
692.173 1025.800
691.578 1042.600
690.982 1029.400
690.387 1036.600
689.791 1042.800
689.196 1070.600
688.601 1075.400
688.005 1067.600
687.410 1068.000
686.814 1074.200
686.218 1114.200
685.623 1123.200
685.027 1126.200
684.431 1166.800
683.835 1166.600
683.239 1196.400
682.643 1217.800
682.047 1234.000
681.451 1241.200
680.855 1242.800
680.259 1302.400
679.663 1285.600
679.066 1289.400
678.470 1313.400
677.874 1323.600
677.278 1322.000
676.682 1342.800
676.084 1344.000
675.488 1350.600
674.892 1359.200
674.296 1369.200
673.698 1361.000
673.102 1358.800
672.505 1357.200
671.908 1367.000
671.311 1327.200
670.715 1326.200
670.117 1317.200
669.520 1292.400
668.924 1290.600
668.326 1264.800
667.729 1227.000
667.132 1212.800
666.534 1213.000
665.937 1192.600
665.339 1159.200
664.743 1135.600
664.146 1117.200
663.548 1089.400
662.950 1073.600
662.352 1038.200
661.755 1038.600
661.157 1023.000
660.560 1013.400
659.961 1000.200
659.364 1017.600
658.766 988.000
658.168 1005.800
657.570 989.400
656.971 990.600
656.374 982.800
655.775 994.000
655.178 976.600
654.579 966.000
653.980 952.600
653.383 959.000
652.784 969.800
652.185 968.000
651.588 963.400
650.989 958.200
650.390 952.800
649.792 945.600
649.193 966.400
648.594 963.400
647.996 970.800
647.397 945.200
646.798 956.400
646.199 951.400
645.599 981.400
645.001 950.600
644.402 970.400
643.803 949.600
643.203 973.000
642.604 961.800
642.006 943.600
641.406 943.000
640.806 942.800
640.207 923.600
639.607 933.000
639.008 930.000
638.408 908.800
637.808 907.800
637.210 880.600
636.610 870.400
636.010 869.600
635.410 879.400
634.810 863.400
634.211 887.200
633.611 861.400
633.011 852.200
632.411 864.600
631.810 855.200
631.210 862.400
630.610 852.000
630.010 841.400
629.410 854.800
628.808 849.600
628.208 834.800
627.608 801.600
627.007 829.600
626.407 844.800
625.807 836.000
625.206 831.800
624.606 829.600
624.004 827.000
623.403 816.200
622.803 830.200
622.202 805.000
621.601 810.200
620.999 813.800
620.399 808.200
619.798 793.800
619.197 811.200
618.596 809.400
617.994 800.400
617.393 802.600
616.792 797.600
616.190 793.000
615.589 785.400
614.988 805.800
614.385 793.800
613.784 805.800
613.183 781.600
612.581 793.600
611.979 785.600
611.378 785.600
610.776 761.000
610.174 790.800
609.572 765.800
608.970 779.800
608.369 748.600
607.766 770.400
607.164 776.200
606.561 780.000
605.960 782.600
605.357 788.800
604.755 765.000
604.152 763.800
603.551 760.400
602.948 782.400
602.346 758.200
601.743 769.600
601.139 743.200
600.537 743.600
599.934 766.600
599.332 743.200
598.729 743.400
598.126 748.000
597.524 762.000
596.920 751.800
596.318 731.400
595.715 741.000
595.111 735.400
594.509 730.000
593.905 730.600
593.301 735.800
592.698 722.400
592.095 701.400
591.492 712.400
590.888 702.000
590.285 721.000
589.681 711.400
589.078 706.800
588.474 692.600
587.870 695.800
587.267 697.000
586.663 701.000
586.059 681.800
585.455 703.600
584.851 694.600
584.247 675.400
583.644 694.000
583.039 675.400
582.435 694.400
581.831 675.600
581.227 683.800
580.622 663.200
580.018 677.600
579.413 671.600
578.809 678.400
578.204 674.200
577.600 655.600
576.995 670.600
576.390 666.400
575.786 661.800
575.181 657.000
574.576 651.400
573.972 653.800
573.367 642.400
572.762 656.800
572.157 657.400
571.552 649.200
570.947 647.000
570.342 658.400
569.737 662.600
569.131 638.400
568.526 651.800
567.921 631.400
567.315 639.000
566.710 638.800
566.105 646.200
565.498 651.000
564.893 646.000
564.288 653.600
563.682 638.400
563.077 634.400
562.470 623.200
561.865 622.400
561.259 635.000
560.654 624.000
560.047 641.600
559.441 613.800
558.835 616.600
558.228 633.200
557.623 607.000
557.017 621.000
556.410 642.800
555.804 622.000
555.198 632.600
554.591 600.000
553.985 622.000
553.379 612.400
552.772 616.000
552.165 623.200
551.558 629.600
550.952 589.000
550.344 611.800
549.738 615.800
549.131 611.400
548.524 618.000
547.918 606.400
547.310 614.600
546.704 617.400
546.096 608.000
545.489 610.400
544.882 601.000
544.274 618.400
543.668 609.000
543.060 615.000
542.453 624.600
541.845 607.800
541.237 606.000
540.630 602.000
540.022 600.800
539.415 609.800
538.807 609.400
538.199 597.200
537.592 609.800
536.984 620.600
536.376 611.600
535.768 616.800
535.160 613.400
534.552 602.600
533.943 607.200
533.336 617.000
532.728 607.600
532.119 616.800
531.510 612.000
530.903 610.600
530.294 625.400
529.686 631.800
529.077 593.600
528.468 619.800
527.859 642.800
527.252 605.800
526.643 614.600
526.034 610.000
525.425 608.600
524.816 618.200
524.207 622.200
523.598 609.200
522.989 629.000
522.380 632.000
521.772 621.600
521.163 601.600
520.553 615.200
519.944 628.600
519.335 611.200
518.725 624.600
518.116 624.000
517.507 615.000
516.897 617.600
516.288 630.000
515.678 610.400
515.069 606.600
514.458 618.600
513.848 631.000
513.238 623.000
512.629 623.300
512.019 617.600
511.409 615.600
510.799 622.800
510.189 628.000
509.579 622.200
508.968 631.000
508.358 616.400
507.748 632.600
507.138 612.800
506.528 623.200
505.918 625.800
505.307 624.800
504.696 627.800
504.086 626.000
503.476 621.600
502.864 615.600
502.254 631.200
501.644 618.200
501.032 623.000
500.421 634.600
499.811 644.200
499.200 625.200
498.589 630.200
497.978 651.000
497.367 646.200
496.755 621.800
496.145 639.400
495.533 633.200
494.922 607.600
494.311 642.400
493.699 623.200
493.088 628.600
492.476 617.600
491.865 626.800
491.253 640.400
490.641 634.400
490.029 631.400
489.418 633.000
488.806 629.800
488.194 641.200
487.582 633.600
486.971 639.600
486.358 647.000
485.747 652.000
485.134 647.000
484.523 626.400
483.910 633.000
483.298 651.400
482.686 632.600
482.073 647.600
481.461 629.200
480.848 664.000
480.235 640.600
479.624 641.600
479.011 641.400
478.398 629.400
477.786 638.600
477.173 637.800
476.560 635.800
475.948 624.200
475.334 642.200
474.721 629.200
474.108 613.000
473.496 626.600
472.882 632.200
472.269 635.800
471.655 631.000
471.043 616.200
470.430 623.000
469.816 635.800
469.202 607.600
468.589 619.400
467.975 619.400
467.363 620.400
466.749 625.600
466.135 608.000
465.521 611.000
464.907 607.000
464.293 596.600
463.680 628.800
463.066 605.200
462.452 621.200
461.838 598.400
461.223 626.000
460.609 601.600
459.996 595.800
459.382 610.600
458.768 609.000
458.154 616.400
457.538 615.400
456.924 596.200
456.309 615.600
455.695 610.400
455.080 632.600
454.466 628.000
453.851 624.800
453.237 617.200
452.622 610.000
452.008 628.400
451.393 633.600
450.778 618.600
450.162 627.200
449.547 629.800
448.932 618.000
448.318 611.400
447.703 632.000
447.088 627.800
446.472 629.600
445.856 634.000
445.241 637.600
444.626 629.200
444.010 625.000
443.395 644.400
442.780 640.200
442.164 651.600
441.548 644.400
440.932 631.800
440.317 644.400
439.700 644.400
439.085 638.800
438.469 658.000
437.853 656.800
437.237 651.200
436.622 657.000
436.005 653.400
435.389 655.000
434.773 647.400
434.156 652.000
433.541 667.400
432.923 665.200
432.308 670.200
431.690 684.400
431.075 680.000
430.457 667.400
429.841 682.200
429.225 706.400
428.608 682.000
427.992 689.800
427.374 702.600
426.757 684.400
426.141 689.200
425.523 690.600
424.907 694.200
424.289 681.200
423.673 683.000
423.055 707.800
422.438 702.600
421.821 710.200
421.203 713.000
420.587 690.600
419.969 699.200
419.351 721.000
418.734 721.200
418.116 729.400
417.498 707.800
416.882 731.200
416.263 722.200
415.645 722.600
415.027 703.000
414.410 698.000
413.792 716.200
413.174 702.200
412.555 731.000
411.938 702.600
411.320 706.800
410.702 714.400
410.083 714.000
409.466 724.200
408.847 708.000
408.229 714.400
407.610 712.400
406.991 718.000
406.373 731.600
405.754 734.000
405.136 731.800
404.518 735.200
403.899 737.800
403.280 711.600
402.661 716.000
402.042 724.200
401.423 730.800
400.804 718.200
400.185 729.600
399.566 720.200
398.947 715.600
398.328 712.800
397.708 709.800
397.089 713.000
396.470 714.000
395.850 691.800
395.231 709.000
394.612 704.200
393.992 712.800
393.373 695.600
392.753 704.600
392.134 710.600
391.514 698.800
390.893 717.200
390.273 719.200
389.654 711.000
389.034 713.200
388.414 711.400
387.794 738.000
387.174 725.600
386.553 752.200
385.933 748.800
385.313 773.600
384.693 771.800
384.072 813.600
383.452 815.400
382.832 826.400
382.212 830.200
381.590 886.200
380.970 908.600
380.350 936.600
379.729 989.800
379.108 1001.400
378.487 1027.200
377.867 1059.000
377.245 1078.200
376.625 1117.000
376.004 1152.600
375.382 1159.000
374.762 1171.000
374.141 1224.400
373.519 1258.600
372.898 1293.600
372.276 1307.400
371.655 1324.200
371.033 1350.200
370.412 1370.200
369.791 1406.400
369.169 1430.200
368.548 1485.800
367.926 1519.000
367.305 1571.800
366.682 1635.800
366.061 1681.800
365.439 1728.400
364.818 1733.400
364.195 1764.600
363.573 1741.000
362.951 1734.800
362.329 1698.400
361.707 1658.000
361.084 1614.200
360.462 1576.200
359.840 1617.400
359.217 1611.600
358.596 1641.200
357.973 1691.800
357.350 1731.000
356.728 1799.000
356.105 1805.800
355.482 1855.800
354.860 1875.600
354.237 1907.600
353.614 1926.600
352.991 1961.400
352.369 1926.000
351.745 2007.000
351.122 2036.800
350.499 2105.000
349.876 2124.400
349.253 2182.200
348.629 2247.200
348.006 2299.400
347.382 2419.200
346.760 2549.000
346.136 2735.000
345.513 2980.200
344.889 3299.400
344.265 3691.000
343.641 4239.600
343.018 4864.800
342.395 5725.200
341.771 6643.400
341.147 7606.800
340.523 8231.000
339.899 8510.400
339.275 8338.200
338.651 7794.000
338.027 6986.000
337.403 6138.200
336.778 5295.600
336.154 4645.200
335.530 4167.000
334.905 3783.600
334.281 3498.200
333.657 3191.600
333.032 2917.400
332.408 2743.800
331.783 2576.000
331.159 2369.600
330.534 2247.000
329.909 2150.000
329.285 2012.600
328.659 1898.000
328.034 1809.000
327.409 1712.600
326.784 1637.600
326.159 1523.400
325.535 1469.000
324.910 1375.400
324.283 1313.000
323.658 1267.400
323.033 1240.800
322.408 1246.800
321.783 1222.400
321.157 1213.200
320.531 1230.000
319.906 1244.000
319.281 1283.400
318.654 1309.200
318.029 1314.400
317.403 1337.200
316.777 1345.000
316.151 1352.000
315.526 1397.200
314.899 1386.400
314.273 1376.800
313.648 1342.000
313.021 1326.000
312.395 1323.600
311.769 1301.000
311.142 1289.000
310.516 1253.600
309.889 1247.200
309.263 1244.800
308.637 1217.400
308.010 1235.000
307.384 1204.600
306.757 1210.400
306.131 1210.200
305.503 1193.400
304.877 1201.200
304.249 1199.800
303.623 1188.600
302.996 1195.200
302.369 1187.400
301.742 1195.200
301.115 1175.400
300.487 1171.000
299.861 1164.000
299.233 1170.200
298.605 1189.400
297.979 1187.600
297.351 1199.800
296.724 1207.400
296.096 1233.600
295.468 1263.000
294.841 1321.800
294.213 1381.000
293.585 1432.800
292.958 1532.200
292.330 1648.800
291.702 1801.600
291.075 1932.200
290.446 2066.400
289.818 2153.400
289.189 2191.000
288.562 2181.600
287.934 2116.200
287.305 2027.800
286.677 1878.600
286.049 1718.400
285.421 1613.000
284.792 1483.400
284.163 1370.200
283.534 1262.000
282.907 1199.600
282.278 1130.200
281.649 1125.800
281.020 1071.000
280.391 1041.000
279.762 1017.200
279.133 999.800
278.505 967.400
277.876 984.400
277.247 975.200
276.618 965.800
275.989 996.600
275.359 974.000
274.730 965.200
274.101 956.000
273.471 970.400
272.842 972.200
272.212 966.400
271.583 895.600
270.953 918.200
270.324 900.200
269.694 899.800
269.065 886.800
268.435 878.600
267.805 879.600
267.175 874.000
266.545 893.000
265.916 873.000
265.284 865.600
264.655 884.000
264.025 867.000
263.395 857.800
262.764 859.200
262.134 869.600
261.504 863.800
260.873 860.000
260.243 860.000
259.612 853.400
258.982 882.600
258.352 851.400
257.720 860.600
257.090 858.000
256.459 871.400
255.829 869.200
255.197 887.000
254.566 867.000
253.936 862.600
253.305 865.400
252.673 861.800
252.042 862.600
251.412 884.800
250.780 849.600
250.149 862.200
249.518 826.000
248.886 806.000
248.255 804.800
247.624 804.400
246.992 789.200
246.360 798.600
245.728 772.400
245.097 731.000
244.466 747.600
243.833 730.400
243.202 715.800
242.569 708.200
241.938 704.800
241.305 698.000
240.674 700.200
240.041 679.600
239.410 667.400
238.777 662.400
238.145 646.400
237.512 648.000
236.881 649.600
236.248 634.800
235.616 618.800
234.983 611.400
234.351 622.600
233.718 609.800
233.085 597.800
232.453 603.000
231.820 584.000
231.186 601.200
230.554 566.000
229.921 583.600
229.289 582.800
228.655 576.000
228.022 573.200
227.390 555.000
226.756 575.400
226.123 567.800
225.489 543.000
224.856 559.600
224.223 545.600
223.589 547.200
222.955 559.400
222.323 538.800
221.689 542.600
221.055 545.000
220.421 550.000
219.788 545.600
219.154 536.000
218.520 532.600
217.886 535.400
217.252 530.000
216.618 532.600
215.985 528.000
215.350 520.800
214.716 517.800
214.082 502.400
213.447 503.000
212.813 493.800
212.178 503.000
