834.788 285.600
834.204 267.600
833.621 271.000
833.037 273.400
832.453 274.800
831.870 270.800
831.286 276.800
830.702 282.800
830.118 280.000
829.535 282.600
828.950 280.400
828.367 283.000
827.782 282.800
827.198 289.200
826.615 281.200
826.030 293.400
825.446 276.000
824.861 280.300
824.277 281.400
823.692 282.600
823.109 294.000
822.523 278.600
821.940 276.000
821.354 279.800
820.770 289.600
820.185 285.200
819.601 280.200
819.016 280.400
818.431 284.200
817.846 277.400
817.261 288.600
816.677 279.400
816.091 284.400
815.506 278.800
814.922 299.400
814.336 295.800
813.750 289.400
813.166 277.800
812.580 282.800
811.995 268.200
811.410 296.600
810.824 274.600
810.239 297.800
809.653 285.800
809.068 291.600
808.482 278.000
807.896 289.400
807.310 277.600
806.724 278.400
806.139 279.200
805.553 280.200
804.967 276.600
804.381 281.400
803.795 287.200
803.209 288.400
802.624 279.400
802.037 281.000
801.451 275.400
800.865 273.800
800.278 282.000
799.692 278.600
799.105 283.800
798.519 282.800
797.932 280.800
797.346 293.200
796.759 278.000
796.173 280.400
795.586 275.400
794.999 286.000
794.412 275.400
793.826 283.800
793.239 290.000
792.652 272.600
792.065 286.400
791.478 282.800
790.891 286.200
790.303 280.400
789.716 281.600
789.129 286.000
788.542 281.200
787.955 276.800
787.368 289.000
786.781 281.600
786.192 287.600
785.605 278.800
785.018 281.000
784.430 286.200
783.842 291.200
783.254 283.000
782.667 276.800
782.079 280.000
781.491 284.200
780.903 279.800
780.316 280.400
779.727 285.800
779.139 297.200
778.551 284.200
777.963 293.600
777.375 286.400
776.787 299.200
776.198 287.400
775.610 275.800
775.022 291.600
774.433 277.800
773.845 294.400
773.256 287.400
772.668 280.200
772.079 288.000
771.491 295.600
770.901 293.600
770.313 295.200
769.724 290.200
769.136 297.200
768.546 298.600
767.958 295.600
767.368 290.200
766.780 282.000
766.190 283.600
765.602 283.800
765.012 298.600
764.422 285.000
763.834 306.600
763.244 301.400
762.655 302.000
762.066 301.000
761.476 295.800
760.887 308.400
760.297 308.200
759.707 308.400
759.117 300.000
758.528 298.600
757.938 299.400
757.348 310.600
756.759 307.200
756.169 301.600
755.578 308.600
754.988 298.000
754.398 314.000
753.809 307.200
753.218 301.800
752.628 313.200
752.037 310.000
751.447 311.200
750.858 313.800
750.267 310.400
749.676 312.600
749.086 303.000
748.495 306.600
747.904 302.400
747.314 316.200
746.723 316.200
746.132 320.400
745.541 321.400
744.950 310.200
744.360 320.600
743.769 309.200
743.178 317.200
742.587 315.600
741.996 320.400
741.404 337.000
740.813 319.200
740.222 312.400
739.631 312.000
739.040 315.000
738.449 321.000
737.857 301.400
737.266 317.800
736.674 317.600
736.083 324.400
735.490 320.600
734.899 322.600
734.307 325.200
733.716 319.800
733.124 310.600
732.533 307.200
731.940 309.800
731.348 306.600
730.756 331.200
730.165 330.800
729.572 323.200
728.980 315.000
728.388 327.800
727.796 324.800
727.203 319.000
726.611 336.400
726.019 317.000
725.426 322.200
724.834 319.000
724.242 323.400
723.648 330.800
723.056 322.400
722.464 332.400
721.870 330.200
721.278 333.800
720.685 333.000
720.092 333.000
719.500 334.400
718.906 341.200
718.314 345.400
717.720 335.000
717.127 347.000
716.534 347.200
715.941 346.000
715.347 337.200
714.755 339.800
714.161 363.600
713.568 359.600
712.974 357.800
712.380 349.400
711.787 370.400
711.193 369.400
710.600 360.800
710.006 371.000
709.412 383.200
708.819 377.200
708.224 380.200
707.631 378.600
707.037 395.000
706.443 395.600
705.848 404.600
705.255 401.800
704.660 409.800
704.066 411.200
703.472 422.600
702.878 433.400
702.283 425.800
701.689 442.000
701.095 425.000
700.500 441.400
699.906 429.000
699.311 441.400
698.716 446.600
698.122 454.800
697.527 457.800
696.932 460.800
696.337 451.800
695.742 455.800
695.147 464.000
694.552 473.000
693.957 466.000
693.363 470.000
692.768 465.600
692.173 467.400
691.578 475.000
690.982 472.000
690.387 457.200
689.791 476.600
689.196 473.800
688.601 475.000
688.005 463.400
687.410 453.000
686.814 453.600
686.218 463.400
685.623 468.600
685.027 474.400
684.431 486.600
683.835 482.200
683.239 495.600
682.643 501.800
682.047 505.400
681.451 508.600
680.855 516.400
680.259 534.200
679.663 536.000
679.066 546.600
678.470 537.200
677.874 547.200
677.278 592.400
676.682 579.800
676.084 569.800
675.488 606.600
674.892 598.200
674.296 618.000
673.698 633.400
673.102 657.000
672.505 641.000
671.908 648.000
671.311 660.600
670.715 657.000
670.117 640.000
669.520 652.600
668.924 639.600
668.326 635.400
667.729 625.800
667.132 612.400
666.534 582.000
665.937 569.800
665.339 562.200
664.743 545.000
664.146 518.000
663.548 524.800
662.950 508.200
662.352 482.400
661.755 478.600
661.157 471.200
660.560 456.400
659.961 465.400
659.364 461.400
658.766 450.400
658.168 448.800
657.570 443.800
656.971 445.200
656.374 418.800
655.775 423.000
655.178 427.600
654.579 419.000
653.980 416.800
653.383 427.600
652.784 418.400
652.185 404.000
651.588 423.200
650.989 413.200
650.390 412.200
649.792 407.600
649.193 411.800
648.594 427.000
647.996 413.800
647.397 420.800
646.798 418.400
646.199 406.800
645.599 434.600
645.001 428.600
644.402 420.600
643.803 419.000
643.203 413.000
642.604 408.600
642.006 417.400
641.406 432.000
640.806 420.600
640.207 411.400
639.607 414.600
639.008 409.200
638.408 392.200
637.808 411.600
637.210 406.800
636.610 398.400
636.010 396.800
635.410 403.600
634.810 403.800
634.211 388.000
633.611 387.800
633.011 394.600
632.411 380.200
631.810 371.000
631.210 381.600
630.610 379.200
630.010 375.600
629.410 388.600
628.808 385.200
628.208 375.800
627.608 366.400
627.007 383.200
626.407 387.200
625.807 388.000
625.206 383.400
624.606 380.000
624.004 398.200
623.403 390.200
622.803 382.200
622.202 385.200
621.601 388.800
620.999 391.800
620.399 376.400
619.798 382.400
619.197 393.200
618.596 391.800
617.994 391.400
617.393 380.000
616.792 385.800
616.190 375.800
615.589 386.800
614.988 391.000
614.385 373.200
613.784 377.400
613.183 368.200
612.581 372.000
611.979 356.400
611.378 375.800
610.776 357.600
610.174 363.200
609.572 364.400
608.970 355.800
608.369 366.200
607.766 365.000
607.164 357.200
606.561 369.800
605.960 360.400
605.357 369.600
604.755 372.400
604.152 367.400
603.551 367.000
602.948 357.200
602.346 373.400
601.743 378.200
601.139 363.600
600.537 359.800
599.934 355.000
599.332 374.800
598.729 361.200
598.126 364.000
597.524 364.400
596.920 374.000
596.318 360.000
595.715 340.800
595.111 355.800
594.509 357.000
593.905 338.800
593.301 336.800
592.698 333.600
592.095 333.200
591.492 347.200
590.888 339.800
590.285 335.600
589.681 335.400
589.078 327.200
588.474 332.600
587.870 329.400
587.267 322.400
586.663 326.000
586.059 334.400
585.455 326.800
584.851 321.200
584.247 326.400
583.644 321.000
583.039 312.200
582.435 301.400
581.831 309.400
581.227 296.400
580.622 311.600
580.018 309.400
579.413 309.400
578.809 313.000
578.204 321.400
577.600 307.200
576.995 302.400
576.390 305.800
575.786 306.600
575.181 300.200
574.576 293.600
573.972 293.600
573.367 297.400
572.762 315.800
572.157 295.800
571.552 295.200
570.947 303.200
570.342 301.800
569.737 307.200
569.131 299.000
568.526 305.800
567.921 293.000
567.315 284.600
566.710 298.800
566.105 296.800
565.498 306.400
564.893 280.800
564.288 285.600
563.682 297.200
563.077 281.400
562.470 272.800
561.865 285.600
561.259 282.400
560.654 298.200
560.047 291.400
559.441 293.800
558.835 282.400
558.228 290.800
557.623 286.000
557.017 291.800
556.410 281.600
555.804 288.800
555.198 279.200
554.591 283.200
553.985 283.000
553.379 286.400
552.772 293.800
552.165 282.600
551.558 289.800
550.952 275.400
550.344 279.400
549.738 278.600
549.131 282.000
548.524 288.200
547.918 275.800
547.310 280.000
546.704 287.000
546.096 286.000
545.489 272.600
544.882 280.600
544.274 293.600
543.668 284.600
543.060 272.600
542.453 282.000
541.845 282.800
541.237 285.600
540.630 278.000
540.022 282.600
539.415 279.400
538.807 283.200
538.199 285.200
537.592 275.800
536.984 283.600
536.376 273.200
535.768 274.800
535.160 279.400
534.552 289.600
533.943 284.800
533.336 270.400
532.728 278.200
532.119 279.400
531.510 281.000
530.903 274.200
530.294 276.200
529.686 276.200
529.077 279.000
528.468 286.400
527.859 289.000
527.252 286.600
526.643 277.200
526.034 288.000
525.425 281.600
524.816 268.000
524.207 283.200
523.598 275.400
522.989 275.800
522.380 289.800
521.772 287.400
521.163 280.600
520.553 287.600
519.944 281.600
519.335 272.200
518.725 280.400
518.116 282.000
517.507 279.600
516.897 279.800
516.288 285.200
515.678 274.600
515.069 281.800
514.458 277.000
513.848 291.800
513.238 287.200
512.629 282.000
512.019 276.800
511.409 279.600
510.799 276.400
510.189 274.400
509.579 281.800
508.968 296.600
508.358 289.200
507.748 278.600
507.138 278.400
506.528 289.600
505.918 281.600
505.307 280.400
504.696 272.200
504.086 271.800
503.476 281.000
502.864 300.600
502.254 288.400
501.644 295.600
501.032 290.800
500.421 285.600
499.811 291.200
499.200 292.000
498.589 292.600
497.978 277.000
497.367 290.600
496.755 274.400
496.145 279.200
495.533 281.200
494.922 292.200
494.311 284.600
493.699 285.000
493.088 275.200
492.476 285.000
491.865 286.800
491.253 297.600
490.641 287.000
490.029 292.000
489.418 286.400
488.806 291.400
488.194 290.800
487.582 298.400
486.971 290.600
486.358 293.400
485.747 287.000
485.134 303.600
484.523 301.600
483.910 300.600
483.298 297.400
482.686 287.400
482.073 303.200
481.461 301.200
480.848 297.400
480.235 292.000
479.624 298.200
479.011 283.400
478.398 287.200
477.786 293.000
477.173 297.000
476.560 296.800
475.948 285.800
475.334 291.200
474.721 293.800
474.108 289.200
473.496 291.800
472.882 287.800
472.269 282.200
471.655 283.600
471.043 292.800
470.430 279.400
469.816 292.800
469.202 283.000
468.589 280.600
467.975 283.600
467.363 282.000
466.749 276.000
466.135 282.800
465.521 289.000
464.907 286.200
464.293 283.200
463.680 284.800
463.066 270.000
462.452 271.200
461.838 278.800
461.223 277.000
460.609 270.200
459.996 282.600
459.382 269.600
458.768 284.200
458.154 282.800
457.538 282.800
456.924 287.800
456.309 284.800
455.695 285.000
455.080 285.600
454.466 271.200
453.851 285.400
453.237 285.000
452.622 294.800
452.008 289.800
451.393 279.400
450.778 287.000
450.162 276.000
449.547 292.200
448.932 281.200
448.318 292.200
447.703 279.400
447.088 280.000
446.472 290.400
445.856 297.000
445.241 281.400
444.626 285.000
444.010 290.000
443.395 302.400
442.780 287.600
442.164 294.200
441.548 279.400
440.932 297.000
440.317 302.800
439.700 293.400
439.085 312.200
438.469 292.200
437.853 311.200
437.237 293.600
436.622 309.200
436.005 303.800
435.389 294.800
434.773 305.200
434.156 316.800
433.541 313.600
432.923 307.000
432.308 319.800
431.690 302.800
431.075 329.800
430.457 327.000
429.841 328.400
429.225 333.200
428.608 327.000
427.992 330.800
427.374 329.400
426.757 327.200
426.141 316.800
425.523 326.400
424.907 333.000
424.289 339.000
423.673 333.600
423.055 336.200
422.438 338.600
421.821 328.800
421.203 350.200
420.587 345.800
419.969 349.200
419.351 351.600
418.734 350.400
418.116 344.200
417.498 354.200
416.882 342.400
416.263 353.200
415.645 356.800
415.027 368.600
414.410 341.400
413.792 344.600
413.174 351.800
412.555 343.400
411.938 349.400
411.320 354.000
410.702 351.200
410.083 349.000
409.466 359.600
408.847 359.000
408.229 365.800
407.610 352.000
406.991 356.800
406.373 372.200
405.754 351.200
405.136 356.600
404.518 364.200
403.899 349.400
403.280 358.000
402.661 374.600
402.042 367.200
401.423 365.600
400.804 365.200
400.185 366.600
399.566 370.200
398.947 350.600
398.328 367.400
397.708 362.200
397.089 348.600
396.470 356.800
395.850 346.600
395.231 365.800
394.612 346.000
393.992 337.400
393.373 346.000
392.753 342.600
392.134 348.600
391.514 345.000
390.893 349.600
390.273 346.200
389.654 356.400
389.034 347.800
388.414 342.400
387.794 348.200
387.174 359.800
386.553 360.800
385.933 368.800
385.313 378.800
384.693 379.200
384.072 400.600
383.452 407.000
382.832 426.400
382.212 431.800
381.590 447.200
380.970 480.400
380.350 506.800
379.729 516.400
379.108 576.400
378.487 612.800
377.867 653.200
377.245 700.600
376.625 729.400
376.004 770.000
375.382 802.400
374.762 847.000
374.141 888.600
373.519 935.400
372.898 988.200
372.276 961.800
371.655 975.000
371.033 946.200
370.412 911.800
369.791 901.800
369.169 841.600
368.548 843.600
367.926 844.400
367.305 807.400
366.682 804.800
366.061 789.800
365.439 798.800
364.818 805.800
364.195 805.400
363.573 805.800
362.951 798.600
362.329 775.800
361.707 749.200
361.084 727.400
360.462 718.400
359.840 703.000
359.217 701.200
358.596 701.800
357.973 719.200
357.350 737.200
356.728 750.200
356.105 782.000
355.482 805.000
354.860 825.000
354.237 852.000
353.614 874.800
352.991 894.600
352.369 896.800
351.745 954.800
351.122 969.800
350.499 1008.600
349.876 1055.000
349.253 1124.800
348.629 1179.600
348.006 1211.400
347.382 1257.600
346.760 1308.800
346.136 1355.400
345.513 1424.400
344.889 1549.800
344.265 1688.800
343.641 1900.400
343.018 2158.600
342.395 2543.600
341.771 3100.600
341.147 3822.600
340.523 4898.200
339.899 6263.800
339.275 7573.600
338.651 8107.600
338.027 7300.200
337.403 5788.400
336.778 4596.200
336.154 3620.200
335.530 2970.200
334.905 2555.200
334.281 2282.800
333.657 2020.000
333.032 1810.600
332.408 1656.200
331.783 1482.200
331.159 1359.800
330.534 1226.800
329.909 1119.000
329.285 1022.400
328.659 936.000
328.034 924.400
327.409 839.800
326.784 810.400
326.159 777.200
325.535 742.800
324.910 707.600
324.283 678.400
323.658 659.800
323.033 638.200
322.408 633.200
321.783 623.400
321.157 610.000
320.531 607.400
319.906 609.600
319.281 612.200
318.654 634.200
318.029 633.800
317.403 629.400
316.777 647.000
316.151 646.600
315.526 626.200
314.899 643.600
314.273 628.200
313.648 622.600
313.021 617.200
312.395 588.200
311.769 600.200
311.142 586.600
310.516 572.200
309.889 560.400
309.263 568.000
308.637 574.200
308.010 559.600
307.384 546.800
306.757 545.200
306.131 561.000
305.503 557.200
304.877 550.200
304.249 548.800
303.623 551.800
302.996 540.400
302.369 553.800
301.742 557.800
301.115 544.000
300.487 558.800
299.861 567.400
299.233 580.600
298.605 587.200
297.979 583.800
297.351 601.200
296.724 639.000
296.096 629.600
295.468 682.800
294.841 714.200
294.213 755.600
293.585 806.400
292.958 856.800
292.330 982.200
291.702 1078.200
291.075 1229.000
290.446 1356.200
289.818 1586.800
289.189 1779.800
288.562 1908.400
287.934 1995.600
287.305 1944.800
286.677 1798.800
286.049 1610.800
285.421 1458.600
284.792 1238.800
284.163 1106.000
283.534 979.800
282.907 901.200
282.278 848.600
281.649 758.800
281.020 703.600
280.391 658.000
279.762 627.400
279.133 638.200
278.505 619.000
277.876 598.800
277.247 584.600
276.618 588.600
275.989 594.600
275.359 597.600
274.730 607.200
274.101 641.600
273.471 627.200
272.842 640.400
272.212 624.800
271.583 613.600
270.953 594.200
270.324 592.800
269.694 584.800
269.065 582.000
268.435 565.200
267.805 565.200
267.175 567.200
266.545 532.000
265.916 557.000
265.284 542.800
264.655 533.000
264.025 520.800
263.395 521.800
262.764 519.400
262.134 496.800
261.504 504.800
260.873 483.600
260.243 484.800
259.612 477.800
258.982 479.600
258.352 458.800
257.720 472.000
257.090 474.000
256.459 472.400
255.829 467.400
255.197 474.200
254.566 469.000
253.936 466.800
253.305 463.800
252.673 450.600
252.042 449.800
251.412 448.800
250.780 441.400
250.149 435.000
249.518 412.800
248.886 417.600
248.255 407.000
247.624 400.800
246.992 393.400
246.360 384.200
245.728 386.200
245.097 373.200
244.466 355.200
243.833 344.600
243.202 364.000
242.569 355.200
241.938 333.000
241.305 348.000
240.674 328.800
240.041 334.000
239.410 319.600
238.777 326.200
238.145 326.200
237.512 323.800
236.881 330.200
236.248 300.000
235.616 315.200
234.983 296.600
234.351 294.000
233.718 302.400
233.085 289.000
232.453 308.200
231.820 291.400
231.186 288.800
230.554 295.400
229.921 281.400
229.289 278.600
228.655 294.800
228.022 292.600
227.390 285.200
226.756 277.200
226.123 276.800
225.489 274.200
224.856 285.200
224.223 283.800
223.589 284.400
222.955 280.600
222.323 270.400
221.689 260.000
221.055 279.000
220.421 264.000
219.788 271.600
219.154 254.800
218.520 268.800
217.886 261.200
217.252 256.000
216.618 264.200
215.985 263.600
215.350 263.200
214.716 270.200
214.082 260.600
213.447 265.000
212.813 253.000
212.178 253.400
