834.788 236.200
834.204 219.400
833.621 225.800
833.037 226.400
832.453 233.400
831.870 235.000
831.286 227.400
830.702 227.000
830.118 227.600
829.535 229.200
828.950 232.600
828.367 222.800
827.782 231.800
827.198 232.600
826.615 226.000
826.030 233.600
825.446 235.800
824.861 237.200
824.277 234.600
823.692 222.400
823.109 240.400
822.523 240.800
821.940 242.800
821.354 232.400
820.770 240.800
820.185 227.000
819.601 236.200
819.016 223.800
818.431 224.200
817.846 231.000
817.261 227.200
816.677 222.000
816.091 229.600
815.506 231.400
814.922 238.000
814.336 227.600
813.750 226.600
813.166 224.200
812.580 241.200
811.995 231.200
811.410 233.600
810.824 231.200
810.239 231.800
809.653 226.000
809.068 218.200
808.482 224.800
807.896 234.600
807.310 235.600
806.724 236.000
806.139 230.000
805.553 231.600
804.967 222.600
804.381 225.800
803.795 225.800
803.209 237.600
802.624 221.800
802.037 226.200
801.451 232.800
800.865 234.600
800.278 221.800
799.692 230.600
799.105 236.000
798.519 222.400
797.932 234.400
797.346 223.200
796.759 236.800
796.173 236.400
795.586 238.200
794.999 235.400
794.412 228.000
793.826 235.600
793.239 227.200
792.652 232.800
792.065 236.600
791.478 227.600
790.891 228.800
790.303 235.000
789.716 232.800
789.129 239.400
788.542 227.600
787.955 231.600
787.368 228.200
786.781 237.200
786.192 233.200
785.605 240.000
785.018 229.000
784.430 232.000
783.842 239.600
783.254 240.000
782.667 229.400
782.079 233.200
781.491 229.600
780.903 242.800
780.316 240.000
779.727 231.200
779.139 234.800
778.551 237.000
777.963 240.400
777.375 240.200
776.787 232.800
776.198 244.200
775.610 234.000
775.022 235.600
774.433 240.400
773.845 237.800
773.256 243.000
772.668 238.200
772.079 247.200
771.491 238.600
770.901 246.400
770.313 240.000
769.724 243.000
769.136 254.200
768.546 256.800
767.958 249.000
767.368 252.400
766.780 245.400
766.190 241.400
765.602 256.200
765.012 256.200
764.422 245.600
763.834 250.800
763.244 245.800
762.655 255.200
762.066 254.800
761.476 256.000
760.887 250.200
760.297 255.200
759.707 258.000
759.117 255.400
758.528 263.600
757.938 269.400
757.348 266.200
756.759 256.400
756.169 259.800
755.578 261.400
754.988 262.800
754.398 262.400
753.809 254.400
753.218 274.600
752.628 260.000
752.037 265.600
751.447 272.600
750.858 269.800
750.267 259.800
749.676 275.400
749.086 274.200
748.495 270.600
747.904 267.800
747.314 269.800
746.723 267.000
746.132 274.200
745.541 268.800
744.950 267.800
744.360 280.400
743.769 269.600
743.178 264.800
742.587 265.000
741.996 273.200
741.404 264.400
740.813 266.400
740.222 272.600
739.631 275.000
739.040 275.800
738.449 275.200
737.857 264.400
737.266 276.400
736.674 271.400
736.083 272.600
735.490 269.600
734.899 269.000
734.307 263.400
733.716 269.600
733.124 269.200
732.533 270.800
731.940 276.400
731.348 276.800
730.756 272.600
730.165 281.400
729.572 268.200
728.980 258.800
728.388 274.200
727.796 257.400
727.203 261.200
726.611 257.800
726.019 274.600
725.426 266.000
724.834 272.600
724.242 269.800
723.648 282.600
723.056 264.800
722.464 263.200
721.870 266.800
721.278 269.000
720.685 281.600
720.092 277.600
719.500 285.800
718.906 285.600
718.314 286.200
717.720 280.000
717.127 286.200
716.534 295.400
715.941 286.600
715.347 295.200
714.755 283.400
714.161 283.400
713.568 288.200
712.974 293.800
712.380 303.600
711.787 295.600
711.193 296.400
710.600 316.600
710.006 312.000
709.412 306.800
708.819 317.200
708.224 329.400
707.631 336.000
707.037 333.200
706.443 331.400
705.848 342.400
705.255 344.000
704.660 363.400
704.066 363.800
703.472 359.600
702.878 384.000
702.283 379.000
701.689 382.600
701.095 368.000
700.500 383.000
699.906 390.400
699.311 392.800
698.716 383.800
698.122 382.000
697.527 387.000
696.932 392.200
696.337 397.600
695.742 398.000
695.147 410.400
694.552 404.600
693.957 410.000
693.363 414.600
692.768 403.600
692.173 407.800
691.578 410.000
690.982 404.000
690.387 412.800
689.791 414.800
689.196 416.400
688.601 419.400
688.005 406.000
687.410 397.000
686.814 414.000
686.218 412.600
685.623 418.000
685.027 422.000
684.431 421.200
683.835 452.200
683.239 459.200
682.643 455.200
682.047 465.800
681.451 458.400
680.855 485.000
680.259 497.200
679.663 500.600
679.066 512.000
678.470 523.200
677.874 533.600
677.278 550.200
676.682 594.600
676.084 595.000
675.488 606.200
674.892 616.600
674.296 615.200
673.698 633.200
673.102 631.600
672.505 641.400
671.908 629.800
671.311 630.800
670.715 624.400
670.117 639.800
669.520 618.000
668.924 597.400
668.326 576.800
667.729 535.400
667.132 518.000
666.534 513.400
665.937 505.600
665.339 494.400
664.743 475.400
664.146 440.200
663.548 449.600
662.950 426.600
662.352 427.400
661.755 409.800
661.157 392.800
660.560 401.200
659.961 391.400
659.364 369.200
658.766 391.400
658.168 372.000
657.570 366.200
656.971 362.000
656.374 374.600
655.775 371.600
655.178 351.400
654.579 350.600
653.980 350.400
653.383 362.200
652.784 355.000
652.185 345.800
651.588 352.800
650.989 356.400
650.390 368.000
649.792 370.600
649.193 358.800
648.594 354.400
647.996 361.600
647.397 356.600
646.798 369.400
646.199 368.200
645.599 367.800
645.001 360.200
644.402 366.800
643.803 358.200
643.203 373.800
642.604 369.200
642.006 367.800
641.406 362.800
640.806 353.000
640.207 363.800
639.607 355.000
639.008 343.800
638.408 345.200
637.808 349.600
637.210 321.000
636.610 348.200
636.010 342.000
635.410 338.600
634.810 336.600
634.211 324.400
633.611 335.600
633.011 341.400
632.411 323.600
631.810 327.400
631.210 319.200
630.610 313.000
630.010 344.400
629.410 341.800
628.808 342.800
628.208 337.600
627.608 305.600
627.007 343.400
626.407 352.000
625.807 345.600
625.206 350.400
624.606 351.800
624.004 341.600
623.403 340.400
622.803 343.200
622.202 352.200
621.601 356.800
620.999 352.600
620.399 352.200
619.798 351.800
619.197 344.600
618.596 338.200
617.994 340.200
617.393 332.600
616.792 327.200
616.190 325.400
615.589 330.600
614.988 332.400
614.385 323.800
613.784 323.400
613.183 310.800
612.581 328.400
611.979 326.600
611.378 313.200
610.776 330.400
610.174 315.200
609.572 326.000
608.970 330.200
608.369 313.200
607.766 323.000
607.164 309.200
606.561 317.600
605.960 331.200
605.357 319.800
604.755 316.400
604.152 331.400
603.551 317.000
602.948 328.800
602.346 325.800
601.743 315.800
601.139 326.200
600.537 319.000
599.934 318.800
599.332 326.600
598.729 327.200
598.126 314.200
597.524 317.600
596.920 331.400
596.318 320.000
595.715 312.400
595.111 305.400
594.509 306.200
593.905 301.600
593.301 306.000
592.698 296.000
592.095 298.000
591.492 294.200
590.888 302.800
590.285 297.000
589.681 305.000
589.078 299.600
588.474 295.800
587.870 288.600
587.267 281.600
586.663 287.000
586.059 277.400
585.455 276.400
584.851 280.200
584.247 269.600
583.644 280.800
583.039 279.600
582.435 275.800
581.831 274.000
581.227 260.600
580.622 266.600
580.018 261.800
579.413 266.800
578.809 268.000
578.204 277.600
577.600 261.800
576.995 265.600
576.390 253.400
575.786 252.400
575.181 267.400
574.576 262.200
573.972 264.200
573.367 261.200
572.762 259.800
572.157 255.600
571.552 248.600
570.947 268.000
570.342 260.800
569.737 256.400
569.131 258.400
568.526 244.000
567.921 251.000
567.315 250.600
566.710 247.000
566.105 252.200
565.498 256.000
564.893 237.600
564.288 254.200
563.682 240.600
563.077 243.600
562.470 233.400
561.865 244.400
561.259 243.800
560.654 242.800
560.047 245.600
559.441 249.200
558.835 243.800
558.228 238.400
557.623 235.800
557.017 245.200
556.410 244.800
555.804 245.200
555.198 241.400
554.591 231.600
553.985 249.400
553.379 244.000
552.772 248.000
552.165 235.000
551.558 238.600
550.952 250.000
550.344 233.400
549.738 232.000
549.131 238.400
548.524 225.000
547.918 240.400
547.310 238.200
546.704 231.800
546.096 241.800
545.489 227.200
544.882 237.800
544.274 233.200
543.668 249.600
543.060 233.600
542.453 238.000
541.845 232.800
541.237 232.400
540.630 230.800
540.022 249.200
539.415 230.800
538.807 231.200
538.199 224.400
537.592 233.800
536.984 224.000
536.376 235.800
535.768 234.600
535.160 238.000
534.552 221.400
533.943 227.600
533.336 234.600
532.728 233.800
532.119 242.600
531.510 235.600
530.903 238.600
530.294 236.400
529.686 240.200
529.077 231.200
528.468 237.800
527.859 237.400
527.252 232.200
526.643 233.000
526.034 239.600
525.425 235.200
524.816 239.800
524.207 232.200
523.598 234.000
522.989 235.600
522.380 234.800
521.772 235.000
521.163 232.000
520.553 239.800
519.944 243.600
519.335 222.000
518.725 232.000
518.116 234.600
517.507 234.600
516.897 237.400
516.288 232.200
515.678 232.200
515.069 235.600
514.458 231.800
513.848 247.000
513.238 230.000
512.629 237.700
512.019 235.200
511.409 239.000
510.799 231.000
510.189 243.400
509.579 241.200
508.968 232.000
508.358 234.000
507.748 231.600
507.138 242.000
506.528 230.000
505.918 231.200
505.307 242.800
504.696 237.800
504.086 239.400
503.476 236.200
502.864 244.400
502.254 240.000
501.644 240.000
501.032 227.200
500.421 247.200
499.811 237.800
499.200 238.800
498.589 239.800
497.978 236.800
497.367 242.000
496.755 235.400
496.145 249.400
495.533 249.400
494.922 243.000
494.311 247.600
493.699 236.400
493.088 224.800
492.476 238.600
491.865 241.600
491.253 249.800
490.641 252.200
490.029 253.200
489.418 247.800
488.806 262.000
488.194 247.400
487.582 259.800
486.971 248.000
486.358 261.800
485.747 252.800
485.134 254.200
484.523 246.800
483.910 258.200
483.298 258.600
482.686 243.800
482.073 253.000
481.461 247.600
480.848 254.200
480.235 253.800
479.624 255.000
479.011 257.600
478.398 235.600
477.786 240.200
477.173 244.800
476.560 247.400
475.948 253.200
475.334 246.600
474.721 250.600
474.108 248.000
473.496 246.400
472.882 250.000
472.269 237.400
471.655 238.000
471.043 251.400
470.430 237.000
469.816 242.000
469.202 237.000
468.589 252.000
467.975 240.600
467.363 235.600
466.749 238.200
466.135 231.200
465.521 234.800
464.907 240.200
464.293 236.400
463.680 234.000
463.066 235.800
462.452 232.800
461.838 236.400
461.223 235.400
460.609 232.800
459.996 226.600
459.382 231.400
458.768 233.800
458.154 241.000
457.538 235.800
456.924 222.600
456.309 242.400
455.695 227.600
455.080 225.200
454.466 239.200
453.851 253.600
453.237 235.800
452.622 239.600
452.008 232.000
451.393 233.600
450.778 234.000
450.162 235.600
449.547 231.200
448.932 237.600
448.318 245.800
447.703 242.200
447.088 247.600
446.472 243.400
445.856 244.000
445.241 248.800
444.626 243.000
444.010 236.800
443.395 251.400
442.780 247.000
442.164 246.800
441.548 254.200
440.932 247.000
440.317 246.400
439.700 250.000
439.085 246.200
438.469 241.400
437.853 255.000
437.237 266.000
436.622 253.400
436.005 256.400
435.389 262.200
434.773 262.000
434.156 264.000
433.541 268.000
432.923 267.800
432.308 276.600
431.690 271.400
431.075 267.200
430.457 278.600
429.841 275.000
429.225 279.800
428.608 289.400
427.992 272.600
427.374 290.000
426.757 278.600
426.141 277.200
425.523 290.800
424.907 287.200
424.289 296.600
423.673 276.400
423.055 293.800
422.438 294.400
421.821 287.400
421.203 295.800
420.587 305.000
419.969 311.400
419.351 304.000
418.734 297.200
418.116 296.000
417.498 298.200
416.882 304.000
416.263 311.200
415.645 303.000
415.027 308.400
414.410 301.000
413.792 319.600
413.174 308.800
412.555 319.600
411.938 312.200
411.320 322.800
410.702 319.200
410.083 311.000
409.466 325.000
408.847 314.600
408.229 312.200
407.610 318.800
406.991 326.800
406.373 316.400
405.754 323.600
405.136 322.200
404.518 311.200
403.899 319.800
403.280 313.400
402.661 317.000
402.042 325.800
401.423 313.800
400.804 323.200
400.185 327.400
399.566 321.800
398.947 307.000
398.328 305.800
397.708 296.000
397.089 301.400
396.470 308.400
395.850 312.800
395.231 304.400
394.612 300.800
393.992 289.800
393.373 299.000
392.753 302.400
392.134 284.000
391.514 293.400
390.893 290.200
390.273 292.600
389.654 296.400
389.034 286.000
388.414 293.000
387.794 285.200
387.174 288.000
386.553 290.800
385.933 298.800
385.313 288.400
384.693 304.800
384.072 304.600
383.452 296.800
382.832 308.600
382.212 301.000
381.590 320.800
380.970 336.600
380.350 339.600
379.729 365.000
379.108 375.600
378.487 392.600
377.867 397.200
377.245 396.600
376.625 419.600
376.004 442.400
375.382 435.000
374.762 448.000
374.141 455.800
373.519 471.400
372.898 482.200
372.276 501.000
371.655 529.200
371.033 535.400
370.412 545.000
369.791 575.400
369.169 572.600
368.548 620.200
367.926 652.400
367.305 671.200
366.682 707.000
366.061 721.400
365.439 763.000
364.818 775.200
364.195 789.400
363.573 785.800
362.951 754.200
362.329 755.000
361.707 744.600
361.084 733.400
360.462 735.800
359.840 745.000
359.217 734.600
358.596 801.000
357.973 825.400
357.350 868.600
356.728 910.600
356.105 952.400
355.482 979.600
354.860 974.400
354.237 965.400
353.614 959.800
352.991 978.200
352.369 992.200
351.745 1023.400
351.122 1065.800
350.499 1085.200
349.876 1179.800
349.253 1280.600
348.629 1354.600
348.006 1412.600
347.382 1453.000
346.760 1482.600
346.136 1540.200
345.513 1639.400
344.889 1809.600
344.265 1981.800
343.641 2259.400
343.018 2666.000
342.395 3223.600
341.771 4038.000
341.147 5331.200
340.523 7130.000
339.899 9015.800
339.275 10245.200
338.651 9626.000
338.027 7478.800
337.403 5561.600
336.778 4224.600
336.154 3398.400
335.530 2870.400
334.905 2455.600
334.281 2221.000
333.657 1946.600
333.032 1773.600
332.408 1575.400
331.783 1397.200
331.159 1241.400
330.534 1128.600
329.909 1029.200
329.285 902.800
328.659 850.800
328.034 809.200
327.409 738.400
326.784 722.000
326.159 701.000
325.535 678.400
324.910 662.800
324.283 653.800
323.658 627.200
323.033 607.600
322.408 625.800
321.783 635.000
321.157 647.800
320.531 664.800
319.906 682.800
319.281 729.400
318.654 748.400
318.029 776.600
317.403 809.600
316.777 826.600
316.151 823.200
315.526 795.600
314.899 756.000
314.273 718.800
313.648 680.000
313.021 656.000
312.395 612.000
311.769 594.400
311.142 579.400
310.516 550.200
309.889 553.400
309.263 532.400
308.637 518.000
308.010 524.200
307.384 522.200
306.757 507.000
306.131 510.000
305.503 526.000
304.877 525.200
304.249 522.400
303.623 528.800
302.996 524.800
302.369 517.000
301.742 525.600
301.115 528.200
300.487 534.800
299.861 535.600
299.233 544.200
298.605 554.600
297.979 562.200
297.351 581.400
296.724 590.200
296.096 626.600
295.468 655.200
294.841 706.200
294.213 770.800
293.585 843.800
292.958 930.600
292.330 1026.200
291.702 1168.200
291.075 1375.200
290.446 1586.600
289.818 1852.600
289.189 2059.400
288.562 2149.600
287.934 2143.600
287.305 2011.200
286.677 1801.000
286.049 1514.400
285.421 1323.800
284.792 1149.600
284.163 994.600
283.534 870.200
282.907 792.400
282.278 725.400
281.649 678.400
281.020 627.000
280.391 576.200
279.762 560.200
279.133 520.200
278.505 515.600
277.876 487.000
277.247 492.400
276.618 492.000
275.989 496.600
275.359 496.200
274.730 512.400
274.101 516.800
273.471 502.800
272.842 498.200
272.212 490.800
271.583 471.000
270.953 464.400
270.324 460.000
269.694 460.000
269.065 435.600
268.435 451.000
267.805 451.600
267.175 437.000
266.545 443.400
265.916 423.000
265.284 426.000
264.655 428.200
264.025 443.600
263.395 431.600
262.764 426.000
262.134 412.800
261.504 431.800
260.873 409.600
260.243 409.200
259.612 423.200
258.982 425.000
258.352 420.400
257.720 424.600
257.090 412.200
256.459 419.800
255.829 427.000
255.197 414.800
254.566 418.400
253.936 419.000
253.305 411.600
252.673 413.400
252.042 402.200
251.412 387.600
250.780 383.400
250.149 388.000
249.518 382.400
248.886 381.000
248.255 365.200
247.624 349.200
246.992 356.200
246.360 333.200
245.728 329.800
245.097 338.600
244.466 327.200
243.833 325.400
243.202 300.400
242.569 306.200
241.938 308.600
241.305 304.200
240.674 297.000
240.041 292.800
239.410 293.800
238.777 292.000
238.145 282.400
237.512 269.000
236.881 283.200
236.248 272.800
235.616 268.000
234.983 265.200
234.351 269.400
233.718 264.000
233.085 259.000
232.453 264.400
231.820 259.600
231.186 252.200
230.554 242.600
229.921 260.400
229.289 240.000
228.655 246.600
228.022 243.400
227.390 244.000
226.756 247.000
226.123 236.200
225.489 244.400
224.856 239.400
224.223 230.000
223.589 250.600
222.955 237.600
222.323 238.800
221.689 234.800
221.055 232.800
220.421 223.800
219.788 231.200
219.154 247.400
218.520 230.400
217.886 225.000
217.252 229.200
216.618 233.600
215.985 231.600
215.350 224.800
214.716 217.400
214.082 224.800
213.447 228.400
212.813 215.200
212.178 215.800
