834.788 720.200
834.204 702.400
833.621 709.000
833.037 704.200
832.453 715.600
831.870 707.600
831.286 703.200
830.702 695.400
830.118 706.200
829.535 711.400
828.950 705.000
828.367 711.400
827.782 703.200
827.198 696.200
826.615 709.400
826.030 722.800
825.446 722.200
824.861 713.500
824.277 696.200
823.692 726.200
823.109 714.800
822.523 719.600
821.940 699.400
821.354 708.800
820.770 716.400
820.185 708.200
819.601 706.400
819.016 715.400
818.431 703.400
817.846 716.600
817.261 714.800
816.677 705.000
816.091 700.400
815.506 696.600
814.922 706.000
814.336 717.200
813.750 701.000
813.166 691.200
812.580 713.800
811.995 728.000
811.410 696.000
810.824 719.200
810.239 699.600
809.653 695.200
809.068 725.600
808.482 701.600
807.896 711.200
807.310 705.600
806.724 715.600
806.139 699.400
805.553 692.400
804.967 687.200
804.381 708.600
803.795 715.000
803.209 710.600
802.624 714.200
802.037 722.000
801.451 711.800
800.865 690.400
800.278 711.600
799.692 680.600
799.105 701.000
798.519 687.800
797.932 690.600
797.346 703.200
796.759 702.200
796.173 721.000
795.586 703.200
794.999 706.000
794.412 706.000
793.826 709.600
793.239 700.600
792.652 683.800
792.065 711.000
791.478 710.000
790.891 705.000
790.303 710.000
789.716 696.200
789.129 702.400
788.542 699.200
787.955 691.800
787.368 696.000
786.781 715.000
786.192 703.200
785.605 709.200
785.018 690.800
784.430 676.600
783.842 695.600
783.254 716.400
782.667 697.000
782.079 685.800
781.491 707.800
780.903 700.800
780.316 704.800
779.727 701.200
779.139 701.000
778.551 701.800
777.963 709.600
777.375 706.200
776.787 682.800
776.198 686.400
775.610 693.800
775.022 703.000
774.433 681.400
773.845 703.600
773.256 691.800
772.668 696.400
772.079 699.800
771.491 707.200
770.901 710.400
770.313 703.200
769.724 725.000
769.136 718.400
768.546 704.800
767.958 713.400
767.368 681.000
766.780 693.000
766.190 693.400
765.602 692.600
765.012 700.200
764.422 706.000
763.834 687.600
763.244 692.400
762.655 706.800
762.066 719.200
761.476 690.600
760.887 705.200
760.297 704.600
759.707 713.600
759.117 712.200
758.528 691.400
757.938 699.600
757.348 707.400
756.759 701.800
756.169 695.400
755.578 698.600
754.988 699.800
754.398 709.200
753.809 718.200
753.218 706.400
752.628 711.200
752.037 686.600
751.447 732.400
750.858 703.000
750.267 701.200
749.676 705.600
749.086 694.800
748.495 695.200
747.904 716.600
747.314 707.600
746.723 697.800
746.132 720.600
745.541 704.600
744.950 714.400
744.360 719.800
743.769 713.000
743.178 700.800
742.587 704.200
741.996 719.400
741.404 719.800
740.813 720.600
740.222 705.400
739.631 715.800
739.040 718.000
738.449 710.200
737.857 715.200
737.266 721.600
736.674 703.400
736.083 705.200
735.490 695.800
734.899 710.000
734.307 720.000
733.716 716.200
733.124 705.600
732.533 684.600
731.940 722.600
731.348 712.400
730.756 703.000
730.165 707.400
729.572 699.400
728.980 724.000
728.388 706.800
727.796 721.400
727.203 727.600
726.611 719.800
726.019 705.000
725.426 717.800
724.834 717.800
724.242 721.000
723.648 721.200
723.056 726.000
722.464 712.200
721.870 721.400
721.278 717.400
720.685 725.800
720.092 708.600
719.500 719.000
718.906 713.600
718.314 721.800
717.720 735.600
717.127 731.600
716.534 744.800
715.941 729.400
715.347 742.800
714.755 757.400
714.161 745.800
713.568 758.000
712.974 761.200
712.380 748.800
711.787 732.600
711.193 775.600
710.600 753.600
710.006 778.800
709.412 758.400
708.819 762.000
708.224 768.600
707.631 755.800
707.037 792.800
706.443 758.400
705.848 767.000
705.255 772.200
704.660 783.400
704.066 768.600
703.472 772.400
702.878 782.000
702.283 791.200
701.689 789.000
701.095 783.200
700.500 789.800
699.906 793.800
699.311 782.800
698.716 790.200
698.122 807.000
697.527 793.800
696.932 800.400
696.337 829.400
695.742 795.800
695.147 801.600
694.552 812.000
693.957 824.600
693.363 798.400
692.768 822.800
692.173 825.000
691.578 799.400
690.982 799.200
690.387 822.400
689.791 824.600
689.196 807.600
688.601 821.400
688.005 814.400
687.410 821.600
686.814 821.000
686.218 830.200
685.623 815.800
685.027 830.800
684.431 824.800
683.835 847.200
683.239 842.400
682.643 853.600
682.047 863.800
681.451 844.200
680.855 849.200
680.259 865.200
679.663 863.000
679.066 868.200
678.470 892.200
677.874 878.800
677.278 902.200
676.682 892.800
676.084 873.200
675.488 895.000
674.892 907.200
674.296 908.800
673.698 903.200
673.102 914.400
672.505 918.000
671.908 930.200
671.311 910.200
670.715 909.400
670.117 920.400
669.520 894.200
668.924 940.000
668.326 901.800
667.729 900.200
667.132 906.000
666.534 889.600
665.937 895.400
665.339 882.800
664.743 871.600
664.146 862.600
663.548 868.000
662.950 881.800
662.352 851.800
661.755 848.200
661.157 857.400
660.560 858.200
659.961 824.400
659.364 833.200
658.766 821.400
658.168 821.000
657.570 808.600
656.971 819.200
656.374 804.800
655.775 813.400
655.178 778.600
654.579 803.600
653.980 787.600
653.383 791.200
652.784 793.200
652.185 790.000
651.588 793.600
650.989 802.000
650.390 787.400
649.792 785.000
649.193 801.600
648.594 795.400
647.996 801.400
647.397 781.400
646.798 799.200
646.199 788.000
645.599 776.600
645.001 791.000
644.402 780.400
643.803 763.000
643.203 784.600
642.604 796.200
642.006 774.200
641.406 773.400
640.806 787.000
640.207 785.400
639.607 783.400
639.008 779.600
638.408 790.400
637.808 765.600
637.210 767.600
636.610 761.200
636.010 775.400
635.410 783.600
634.810 755.600
634.211 761.000
633.611 751.600
633.011 763.800
632.411 764.000
631.810 749.400
631.210 750.000
630.610 752.400
630.010 752.800
629.410 738.200
628.808 752.600
628.208 763.800
627.608 704.400
627.007 751.800
626.407 762.600
625.807 759.800
625.206 742.400
624.606 762.600
624.004 757.600
623.403 740.200
622.803 745.200
622.202 753.400
621.601 757.200
620.999 736.600
620.399 747.000
619.798 764.400
619.197 731.800
618.596 761.000
617.994 758.800
617.393 741.800
616.792 756.600
616.190 738.400
615.589 751.800
614.988 746.200
614.385 750.600
613.784 737.400
613.183 739.600
612.581 731.000
611.979 750.000
611.378 713.800
610.776 749.800
610.174 728.600
609.572 735.400
608.970 715.400
608.369 728.800
607.766 735.200
607.164 723.200
606.561 738.000
605.960 750.600
605.357 721.400
604.755 719.800
604.152 724.400
603.551 732.400
602.948 719.600
602.346 728.200
601.743 726.800
601.139 738.600
600.537 728.200
599.934 721.800
599.332 723.200
598.729 728.000
598.126 704.800
597.524 716.600
596.920 718.200
596.318 720.200
595.715 717.600
595.111 698.600
594.509 715.400
593.905 707.400
593.301 708.800
592.698 702.800
592.095 711.800
591.492 710.400
590.888 710.200
590.285 716.000
589.681 717.800
589.078 682.600
588.474 687.400
587.870 697.800
587.267 697.600
586.663 705.000
586.059 678.000
585.455 684.400
584.851 692.800
584.247 689.000
583.644 695.200
583.039 703.600
582.435 690.600
581.831 695.800
581.227 686.800
580.622 684.200
580.018 687.000
579.413 675.200
578.809 683.400
578.204 673.200
577.600 682.400
576.995 684.800
576.390 679.600
575.786 677.800
575.181 661.600
574.576 675.000
573.972 683.600
573.367 684.800
572.762 672.600
572.157 668.400
571.552 678.000
570.947 687.000
570.342 676.600
569.737 663.200
569.131 675.000
568.526 661.000
567.921 678.000
567.315 676.000
566.710 676.400
566.105 660.400
565.498 686.000
564.893 666.000
564.288 657.400
563.682 661.600
563.077 660.600
562.470 658.800
561.865 658.400
561.259 660.000
560.654 658.600
560.047 658.600
559.441 653.200
558.835 677.200
558.228 659.000
557.623 660.800
557.017 664.600
556.410 661.200
555.804 671.400
555.198 634.200
554.591 650.600
553.985 660.200
553.379 665.000
552.772 657.200
552.165 662.000
551.558 648.600
550.952 647.600
550.344 666.000
549.738 677.400
549.131 644.200
548.524 660.200
547.918 637.000
547.310 651.200
546.704 657.400
546.096 637.200
545.489 658.800
544.882 646.400
544.274 653.600
543.668 640.600
543.060 640.600
542.453 648.200
541.845 630.600
541.237 650.600
540.630 637.800
540.022 646.000
539.415 642.000
538.807 644.200
538.199 666.600
537.592 637.200
536.984 664.000
536.376 638.000
535.768 646.200
535.160 637.000
534.552 638.800
533.943 633.400
533.336 640.800
532.728 646.000
532.119 657.600
531.510 655.600
530.903 662.600
530.294 636.400
529.686 640.600
529.077 635.600
528.468 636.600
527.859 620.200
527.252 639.800
526.643 644.400
526.034 648.800
525.425 637.000
524.816 626.000
524.207 633.800
523.598 630.000
522.989 641.800
522.380 630.000
521.772 632.600
521.163 647.600
520.553 622.400
519.944 660.400
519.335 629.200
518.725 628.000
518.116 631.800
517.507 639.800
516.897 618.200
516.288 627.200
515.678 633.000
515.069 647.200
514.458 644.000
513.848 629.600
513.238 635.600
512.629 644.600
512.019 651.000
511.409 644.400
510.799 633.600
510.189 629.000
509.579 639.200
508.968 633.000
508.358 645.800
507.748 625.800
507.138 623.800
506.528 666.400
505.918 647.600
505.307 617.400
504.696 643.800
504.086 622.600
503.476 637.000
502.864 643.600
502.254 636.600
501.644 626.400
501.032 634.600
500.421 648.000
499.811 639.600
499.200 633.600
498.589 632.400
497.978 642.800
497.367 654.000
496.755 629.400
496.145 637.600
495.533 644.800
494.922 631.800
494.311 632.400
493.699 625.600
493.088 636.600
492.476 627.400
491.865 635.200
491.253 661.800
490.641 651.600
490.029 638.200
489.418 625.200
488.806 653.600
488.194 643.800
487.582 651.400
486.971 635.600
486.358 644.000
485.747 633.000
485.134 643.200
484.523 648.600
483.910 673.800
483.298 623.000
482.686 626.800
482.073 637.800
481.461 633.400
480.848 635.600
480.235 646.200
479.624 652.200
479.011 653.200
478.398 620.000
477.786 651.800
477.173 656.600
476.560 644.600
475.948 640.800
475.334 644.800
474.721 653.600
474.108 637.400
473.496 648.400
472.882 637.800
472.269 629.800
471.655 629.400
471.043 647.800
470.430 636.400
469.816 635.400
469.202 629.400
468.589 636.600
467.975 624.800
467.363 629.800
466.749 628.600
466.135 641.800
465.521 622.200
464.907 610.800
464.293 623.400
463.680 630.800
463.066 633.600
462.452 610.000
461.838 627.200
461.223 631.400
460.609 623.200
459.996 630.600
459.382 616.600
458.768 627.400
458.154 623.000
457.538 630.400
456.924 625.600
456.309 616.600
455.695 635.800
455.080 628.200
454.466 630.800
453.851 639.000
453.237 630.600
452.622 638.400
452.008 621.000
451.393 624.400
450.778 620.000
450.162 627.400
449.547 625.400
448.932 620.200
448.318 629.200
447.703 623.000
447.088 630.400
446.472 630.000
445.856 631.400
445.241 621.800
444.626 624.000
444.010 619.800
443.395 627.000
442.780 620.800
442.164 639.200
441.548 625.000
440.932 651.600
440.317 626.400
439.700 625.200
439.085 648.800
438.469 639.600
437.853 633.400
437.237 618.800
436.622 632.000
436.005 633.000
435.389 652.800
434.773 625.800
434.156 637.600
433.541 632.600
432.923 648.400
432.308 637.800
431.690 655.600
431.075 644.600
430.457 622.000
429.841 643.400
429.225 644.000
428.608 653.200
427.992 645.800
427.374 632.600
426.757 647.400
426.141 650.600
425.523 647.600
424.907 649.200
424.289 652.400
423.673 637.600
423.055 639.800
422.438 654.200
421.821 631.800
421.203 660.800
420.587 666.400
419.969 672.400
419.351 640.000
418.734 667.400
418.116 671.600
417.498 689.000
416.882 669.200
416.263 655.800
415.645 674.200
415.027 664.400
414.410 676.200
413.792 667.800
413.174 668.400
412.555 679.200
411.938 653.200
411.320 651.600
410.702 659.800
410.083 679.600
409.466 668.000
408.847 684.000
408.229 677.800
407.610 648.800
406.991 662.800
406.373 677.800
405.754 670.200
405.136 676.800
404.518 657.600
403.899 671.000
403.280 682.400
402.661 682.600
402.042 673.800
401.423 667.000
400.804 666.400
400.185 675.000
399.566 673.400
398.947 657.000
398.328 673.600
397.708 670.800
397.089 656.400
396.470 674.400
395.850 685.600
395.231 663.400
394.612 687.600
393.992 695.200
393.373 676.200
392.753 658.000
392.134 672.400
391.514 671.000
390.893 659.800
390.273 678.200
389.654 668.200
389.034 668.400
388.414 679.400
387.794 673.000
387.174 684.600
386.553 658.600
385.933 666.000
385.313 666.000
384.693 663.800
384.072 686.000
383.452 671.400
382.832 690.400
382.212 695.600
381.590 702.000
380.970 721.000
380.350 702.000
379.729 718.600
379.108 734.800
378.487 753.400
377.867 770.000
377.245 787.000
376.625 795.400
376.004 805.600
375.382 829.400
374.762 839.000
374.141 851.800
373.519 852.200
372.898 878.000
372.276 881.200
371.655 904.600
371.033 904.400
370.412 910.000
369.791 937.800
369.169 962.800
368.548 973.000
367.926 991.200
367.305 999.200
366.682 1005.400
366.061 1051.200
365.439 1075.800
364.818 1091.400
364.195 1136.000
363.573 1160.400
362.951 1169.800
362.329 1177.800
361.707 1159.800
361.084 1172.200
360.462 1153.600
359.840 1148.400
359.217 1166.400
358.596 1149.000
357.973 1170.600
357.350 1231.800
356.728 1222.800
356.105 1231.800
355.482 1266.400
354.860 1276.000
354.237 1259.000
353.614 1250.400
352.991 1271.000
352.369 1241.000
351.745 1248.000
351.122 1275.600
350.499 1256.800
349.876 1311.800
349.253 1327.400
348.629 1337.400
348.006 1360.400
347.382 1413.800
346.760 1432.000
346.136 1505.000
345.513 1542.800
344.889 1624.200
344.265 1669.800
343.641 1796.200
343.018 1976.600
342.395 2178.400
341.771 2435.400
341.147 2779.400
340.523 3268.200
339.899 3755.600
339.275 4306.600
338.651 4594.200
338.027 4615.800
337.403 4329.000
336.778 4004.200
336.154 3617.200
335.530 3247.000
334.905 2993.200
334.281 2787.000
333.657 2556.800
333.032 2378.200
332.408 2221.000
331.783 2086.400
331.159 1961.000
330.534 1817.400
329.909 1732.800
329.285 1618.000
328.659 1530.200
328.034 1468.600
327.409 1388.400
326.784 1356.800
326.159 1298.000
325.535 1234.600
324.910 1184.400
324.283 1151.800
323.658 1122.000
323.033 1083.600
322.408 1052.400
321.783 1062.800
321.157 1009.000
320.531 991.800
319.906 979.000
319.281 967.400
318.654 965.200
318.029 958.400
317.403 955.400
316.777 947.800
316.151 941.600
315.526 952.800
314.899 971.200
314.273 954.400
313.648 935.600
313.021 920.600
312.395 935.800
311.769 934.000
311.142 930.000
310.516 919.400
309.889 926.600
309.263 904.800
308.637 906.400
308.010 893.000
307.384 928.600
306.757 927.400
306.131 917.000
305.503 923.000
304.877 927.200
304.249 919.800
303.623 924.400
302.996 899.000
302.369 907.600
301.742 926.600
301.115 901.600
300.487 912.000
299.861 918.800
299.233 928.400
298.605 939.800
297.979 932.400
297.351 943.200
296.724 947.800
296.096 955.600
295.468 963.400
294.841 972.800
294.213 985.800
293.585 1018.200
292.958 1055.800
292.330 1082.600
291.702 1144.200
291.075 1192.400
290.446 1254.400
289.818 1371.000
289.189 1396.800
288.562 1488.800
287.934 1529.400
287.305 1535.000
286.677 1498.200
286.049 1451.600
285.421 1394.800
284.792 1310.400
284.163 1253.800
283.534 1205.000
282.907 1158.200
282.278 1090.200
281.649 1074.800
281.020 1038.600
280.391 1025.200
279.762 992.400
279.133 1003.600
278.505 949.800
277.876 965.600
277.247 968.200
276.618 927.000
275.989 927.600
275.359 939.000
274.730 921.600
274.101 925.400
273.471 940.400
272.842 923.600
272.212 928.200
271.583 919.400
270.953 919.600
270.324 893.200
269.694 895.400
269.065 887.000
268.435 858.800
267.805 880.000
267.175 860.800
266.545 863.600
265.916 826.200
265.284 843.200
264.655 868.600
264.025 843.600
263.395 807.000
262.764 841.600
262.134 832.000
261.504 832.400
260.873 807.000
260.243 809.200
259.612 804.600
258.982 783.200
258.352 804.800
257.720 788.600
257.090 815.800
256.459 783.800
255.829 780.200
255.197 801.000
254.566 787.000
253.936 776.800
253.305 768.000
252.673 779.200
252.042 782.400
251.412 776.200
250.780 767.200
250.149 744.000
249.518 755.600
248.886 752.400
248.255 759.000
247.624 721.000
246.992 725.800
246.360 715.800
245.728 716.600
245.097 703.600
244.466 704.000
243.833 697.200
243.202 677.400
242.569 684.600
241.938 673.800
241.305 673.200
240.674 681.800
240.041 646.800
239.410 641.800
238.777 645.800
238.145 637.600
237.512 645.000
236.881 636.200
236.248 629.000
235.616 626.200
234.983 625.600
234.351 619.400
233.718 627.400
233.085 624.800
232.453 608.600
231.820 604.000
231.186 603.800
230.554 596.400
229.921 606.000
229.289 608.000
228.655 595.400
228.022 591.400
227.390 586.800
226.756 593.800
226.123 567.800
225.489 572.400
224.856 577.200
224.223 583.600
223.589 572.600
222.955 554.600
222.323 573.400
221.689 567.000
221.055 570.400
220.421 564.600
219.788 568.600
219.154 569.400
218.520 548.800
217.886 572.800
217.252 550.400
216.618 564.400
215.985 561.000
215.350 559.800
214.716 548.400
214.082 539.600
213.447 549.400
212.813 514.400
212.178 527.600
