834.788 1205.000
834.204 1190.800
833.621 1206.000
833.037 1192.000
832.453 1200.000
831.870 1210.400
831.286 1200.200
830.702 1222.600
830.118 1187.200
829.535 1198.400
828.950 1196.600
828.367 1185.600
827.782 1200.200
827.198 1187.200
826.615 1212.400
826.030 1191.000
825.446 1217.800
824.861 1199.300
824.277 1180.400
823.692 1218.400
823.109 1213.600
822.523 1210.600
821.940 1192.200
821.354 1182.000
820.770 1208.600
820.185 1193.000
819.601 1212.800
819.016 1195.600
818.431 1205.400
817.846 1199.600
817.261 1212.000
816.677 1202.400
816.091 1185.000
815.506 1219.400
814.922 1217.800
814.336 1185.400
813.750 1209.600
813.166 1189.400
812.580 1193.400
811.995 1211.000
811.410 1225.400
810.824 1203.000
810.239 1219.000
809.653 1200.800
809.068 1185.000
808.482 1216.200
807.896 1203.800
807.310 1201.400
806.724 1204.400
806.139 1196.800
805.553 1207.400
804.967 1205.000
804.381 1218.800
803.795 1193.800
803.209 1184.600
802.624 1197.000
802.037 1202.400
801.451 1218.800
800.865 1201.800
800.278 1197.400
799.692 1232.200
799.105 1226.200
798.519 1200.000
797.932 1210.200
797.346 1196.400
796.759 1197.000
796.173 1174.400
795.586 1210.800
794.999 1192.600
794.412 1195.800
793.826 1190.000
793.239 1191.400
792.652 1182.800
792.065 1208.600
791.478 1234.600
790.891 1201.400
790.303 1204.400
789.716 1220.400
789.129 1216.600
788.542 1227.200
787.955 1215.600
787.368 1185.800
786.781 1213.400
786.192 1218.600
785.605 1220.400
785.018 1202.200
784.430 1198.600
783.842 1215.000
783.254 1239.200
782.667 1242.000
782.079 1213.400
781.491 1217.400
780.903 1218.200
780.316 1211.600
779.727 1217.000
779.139 1209.000
778.551 1222.200
777.963 1236.000
777.375 1235.600
776.787 1230.000
776.198 1236.600
775.610 1236.400
775.022 1235.800
774.433 1209.000
773.845 1233.200
773.256 1230.400
772.668 1239.400
772.079 1240.400
771.491 1226.600
770.901 1230.200
770.313 1238.200
769.724 1219.000
769.136 1228.800
768.546 1260.800
767.958 1235.000
767.368 1255.000
766.780 1227.200
766.190 1239.600
765.602 1242.800
765.012 1259.200
764.422 1251.800
763.834 1231.400
763.244 1250.000
762.655 1251.400
762.066 1246.800
761.476 1248.200
760.887 1263.800
760.297 1270.400
759.707 1218.000
759.117 1273.800
758.528 1251.000
757.938 1271.000
757.348 1277.000
756.759 1254.400
756.169 1255.800
755.578 1261.600
754.988 1271.200
754.398 1284.400
753.809 1275.800
753.218 1257.000
752.628 1286.200
752.037 1252.400
751.447 1289.600
750.858 1282.800
750.267 1270.400
749.676 1284.200
749.086 1283.400
748.495 1271.600
747.904 1287.800
747.314 1281.000
746.723 1269.800
746.132 1276.000
745.541 1293.600
744.950 1305.000
744.360 1284.600
743.769 1268.000
743.178 1294.800
742.587 1295.200
741.996 1315.000
741.404 1287.200
740.813 1297.200
740.222 1303.600
739.631 1304.200
739.040 1313.600
738.449 1302.200
737.857 1305.600
737.266 1314.200
736.674 1337.200
736.083 1316.600
735.490 1317.400
734.899 1349.000
734.307 1341.000
733.716 1329.800
733.124 1333.200
732.533 1338.200
731.940 1374.400
731.348 1344.800
730.756 1340.600
730.165 1346.800
729.572 1346.800
728.980 1342.600
728.388 1352.600
727.796 1359.600
727.203 1378.800
726.611 1377.600
726.019 1398.600
725.426 1385.000
724.834 1414.800
724.242 1406.400
723.648 1382.400
723.056 1389.600
722.464 1399.400
721.870 1421.000
721.278 1424.800
720.685 1417.000
720.092 1434.000
719.500 1461.200
718.906 1444.600
718.314 1458.200
717.720 1471.800
717.127 1502.200
716.534 1479.800
715.941 1465.000
715.347 1480.000
714.755 1539.000
714.161 1532.400
713.568 1546.200
712.974 1591.600
712.380 1575.400
711.787 1585.600
711.193 1599.400
710.600 1631.000
710.006 1627.000
709.412 1665.400
708.819 1664.600
708.224 1662.200
707.631 1706.600
707.037 1697.200
706.443 1763.600
705.848 1742.400
705.255 1750.400
704.660 1780.000
704.066 1804.000
703.472 1814.600
702.878 1842.000
702.283 1846.200
701.689 1861.400
701.095 1898.800
700.500 1901.800
699.906 1904.200
699.311 1902.400
698.716 1889.000
698.122 1933.600
697.527 1928.600
696.932 1929.200
696.337 1933.600
695.742 1907.400
695.147 1953.200
694.552 1914.200
693.957 1960.800
693.363 1963.800
692.768 1979.400
692.173 1976.800
691.578 1978.800
690.982 1995.600
690.387 1985.000
689.791 1990.200
689.196 2006.200
688.601 2000.200
688.005 2019.600
687.410 2062.400
686.814 2051.200
686.218 2061.200
685.623 2076.200
685.027 2128.400
684.431 2147.200
683.835 2162.000
683.239 2211.000
682.643 2235.800
682.047 2281.400
681.451 2302.000
680.855 2353.400
680.259 2412.600
679.663 2424.600
679.066 2481.400
678.470 2471.800
677.874 2502.400
677.278 2546.400
676.682 2524.800
676.084 2521.000
675.488 2578.200
674.892 2550.400
674.296 2548.000
673.698 2539.800
673.102 2562.800
672.505 2571.600
671.908 2535.800
671.311 2526.000
670.715 2523.400
670.117 2528.200
669.520 2505.800
668.924 2469.600
668.326 2480.000
667.729 2453.000
667.132 2436.000
666.534 2371.200
665.937 2364.800
665.339 2321.000
664.743 2288.600
664.146 2241.800
663.548 2236.600
662.950 2189.400
662.352 2149.600
661.755 2111.600
661.157 2094.200
660.560 2088.600
659.961 2064.600
659.364 1987.000
658.766 2005.400
658.168 2032.800
657.570 1969.000
656.971 1986.000
656.374 1964.600
655.775 1957.400
655.178 1951.000
654.579 1940.600
653.980 1983.200
653.383 1947.200
652.784 1918.800
652.185 1903.600
651.588 1938.000
650.989 1929.000
650.390 1921.600
649.792 1915.000
649.193 1923.000
648.594 1907.000
647.996 1886.000
647.397 1890.800
646.798 1875.200
646.199 1881.600
645.599 1858.200
645.001 1870.600
644.402 1895.400
643.803 1863.200
643.203 1873.600
642.604 1875.200
642.006 1841.200
641.406 1855.400
640.806 1831.800
640.207 1824.000
639.607 1825.400
639.008 1862.800
638.408 1812.800
637.808 1793.400
637.210 1810.000
636.610 1796.600
636.010 1762.000
635.410 1778.000
634.810 1732.000
634.211 1762.400
633.611 1721.600
633.011 1702.000
632.411 1701.000
631.810 1690.000
631.210 1675.000
630.610 1659.000
630.010 1682.800
629.410 1663.400
628.808 1634.400
628.208 1638.800
627.608 1592.600
627.007 1641.800
626.407 1647.600
625.807 1636.000
625.206 1608.200
624.606 1612.000
624.004 1594.400
623.403 1580.400
622.803 1570.000
622.202 1589.200
621.601 1575.200
620.999 1574.000
620.399 1577.600
619.798 1561.600
619.197 1555.000
618.596 1557.800
617.994 1573.800
617.393 1535.600
616.792 1551.200
616.190 1539.200
615.589 1560.000
614.988 1540.600
614.385 1537.600
613.784 1550.800
613.183 1524.000
612.581 1508.400
611.979 1489.200
611.378 1509.400
610.776 1497.800
610.174 1532.200
609.572 1486.800
608.970 1500.000
608.369 1502.800
607.766 1492.600
607.164 1517.600
606.561 1488.400
605.960 1490.200
605.357 1481.000
604.755 1471.200
604.152 1477.000
603.551 1485.600
602.948 1455.200
602.346 1483.400
601.743 1469.400
601.139 1460.000
600.537 1473.800
599.934 1445.400
599.332 1460.400
598.729 1449.000
598.126 1445.800
597.524 1421.000
596.920 1418.000
596.318 1427.200
595.715 1424.000
595.111 1430.400
594.509 1406.200
593.905 1421.800
593.301 1410.200
592.698 1390.600
592.095 1437.000
591.492 1401.200
590.888 1383.600
590.285 1371.800
589.681 1399.400
589.078 1396.800
588.474 1391.200
587.870 1383.200
587.267 1390.800
586.663 1375.400
586.059 1384.200
585.455 1374.600
584.851 1380.400
584.247 1350.400
583.644 1346.000
583.039 1355.400
582.435 1358.200
581.831 1349.800
581.227 1341.000
580.622 1350.800
580.018 1349.200
579.413 1337.400
578.809 1333.400
578.204 1326.000
577.600 1332.200
576.995 1301.200
576.390 1308.000
575.786 1328.600
575.181 1308.200
574.576 1304.400
573.972 1286.400
573.367 1314.400
572.762 1321.000
572.157 1289.400
571.552 1281.600
570.947 1311.000
570.342 1293.800
569.737 1285.600
569.131 1268.200
568.526 1279.800
567.921 1260.600
567.315 1270.600
566.710 1269.200
566.105 1272.400
565.498 1271.800
564.893 1248.800
564.288 1267.400
563.682 1240.400
563.077 1256.200
562.470 1236.600
561.865 1248.200
561.259 1258.400
560.654 1235.400
560.047 1240.400
559.441 1246.400
558.835 1242.200
558.228 1225.800
557.623 1223.800
557.017 1219.000
556.410 1227.600
555.804 1249.400
555.198 1238.000
554.591 1246.400
553.985 1226.200
553.379 1196.200
552.772 1213.800
552.165 1213.600
551.558 1214.800
550.952 1248.200
550.344 1201.400
549.738 1212.800
549.131 1218.800
548.524 1216.200
547.918 1208.400
547.310 1227.200
546.704 1203.200
546.096 1204.400
545.489 1236.200
544.882 1213.400
544.274 1225.200
543.668 1195.400
543.060 1209.600
542.453 1202.000
541.845 1195.800
541.237 1224.000
540.630 1213.000
540.022 1196.200
539.415 1201.000
538.807 1224.000
538.199 1216.200
537.592 1195.600
536.984 1218.000
536.376 1228.200
535.768 1215.200
535.160 1214.000
534.552 1229.400
533.943 1210.800
533.336 1201.200
532.728 1212.400
532.119 1207.600
531.510 1232.200
530.903 1198.200
530.294 1221.800
529.686 1220.000
529.077 1224.000
528.468 1232.000
527.859 1231.400
527.252 1237.800
526.643 1225.200
526.034 1225.800
525.425 1229.600
524.816 1244.800
524.207 1235.200
523.598 1218.800
522.989 1223.600
522.380 1246.400
521.772 1245.800
521.163 1233.000
520.553 1254.600
519.944 1243.400
519.335 1266.400
518.725 1243.200
518.116 1248.400
517.507 1266.000
516.897 1260.400
516.288 1272.000
515.678 1281.000
515.069 1277.000
514.458 1243.000
513.848 1289.400
513.238 1249.600
512.629 1257.900
512.019 1258.000
511.409 1290.000
510.799 1261.800
510.189 1266.800
509.579 1257.800
508.968 1282.600
508.358 1267.200
507.748 1279.400
507.138 1282.400
506.528 1286.000
505.918 1271.800
505.307 1278.600
504.696 1275.800
504.086 1274.600
503.476 1277.000
502.864 1266.400
502.254 1284.800
501.644 1290.000
501.032 1262.200
500.421 1276.600
499.811 1274.400
499.200 1291.400
498.589 1281.000
497.978 1319.400
497.367 1280.600
496.755 1308.800
496.145 1286.800
495.533 1310.000
494.922 1322.000
494.311 1295.400
493.699 1293.200
493.088 1311.400
492.476 1274.800
491.865 1296.600
491.253 1309.600
490.641 1311.600
490.029 1301.000
489.418 1305.800
488.806 1297.000
488.194 1308.600
487.582 1300.200
486.971 1299.400
486.358 1327.400
485.747 1322.800
485.134 1309.600
484.523 1312.800
483.910 1326.400
483.298 1318.600
482.686 1292.200
482.073 1330.000
481.461 1281.000
480.848 1308.200
480.235 1313.200
479.624 1320.800
479.011 1288.400
478.398 1307.800
477.786 1304.000
477.173 1316.400
476.560 1301.600
475.948 1301.200
475.334 1319.400
474.721 1315.000
474.108 1290.400
473.496 1291.600
472.882 1318.400
472.269 1293.200
471.655 1308.400
471.043 1302.000
470.430 1287.000
469.816 1278.600
469.202 1297.000
468.589 1295.000
467.975 1277.600
467.363 1273.400
466.749 1294.200
466.135 1273.800
465.521 1266.000
464.907 1291.800
464.293 1288.600
463.680 1266.400
463.066 1283.600
462.452 1283.800
461.838 1266.200
461.223 1269.200
460.609 1260.200
459.996 1258.200
459.382 1261.600
458.768 1263.200
458.154 1258.800
457.538 1289.200
456.924 1279.000
456.309 1261.000
455.695 1287.800
455.080 1283.200
454.466 1256.800
453.851 1275.000
453.237 1280.400
452.622 1288.600
452.008 1293.000
451.393 1312.800
450.778 1293.000
450.162 1306.000
449.547 1299.200
448.932 1309.200
448.318 1296.400
447.703 1299.400
447.088 1303.800
446.472 1313.400
445.856 1315.600
445.241 1299.200
444.626 1312.600
444.010 1338.800
443.395 1323.600
442.780 1336.200
442.164 1347.600
441.548 1323.000
440.932 1327.200
440.317 1302.400
439.700 1337.200
439.085 1324.800
438.469 1324.200
437.853 1326.400
437.237 1318.200
436.622 1347.200
436.005 1353.400
435.389 1352.000
434.773 1366.200
434.156 1351.000
433.541 1362.600
432.923 1342.600
432.308 1359.600
431.690 1360.800
431.075 1376.200
430.457 1382.600
429.841 1374.400
429.225 1388.400
428.608 1411.800
427.992 1418.000
427.374 1405.200
426.757 1423.600
426.141 1419.400
425.523 1390.000
424.907 1446.800
424.289 1404.200
423.673 1400.000
423.055 1438.200
422.438 1447.800
421.821 1462.800
421.203 1461.800
420.587 1466.000
419.969 1438.200
419.351 1452.400
418.734 1466.600
418.116 1471.400
417.498 1436.800
416.882 1454.400
416.263 1474.000
415.645 1462.000
415.027 1463.000
414.410 1437.000
413.792 1463.000
413.174 1455.000
412.555 1462.200
411.938 1465.000
411.320 1472.800
410.702 1471.400
410.083 1467.000
409.466 1464.800
408.847 1448.600
408.229 1447.200
407.610 1479.600
406.991 1465.800
406.373 1477.400
405.754 1450.200
405.136 1504.400
404.518 1483.400
403.899 1474.800
403.280 1488.600
402.661 1497.800
402.042 1452.000
401.423 1460.000
400.804 1472.600
400.185 1520.200
399.566 1476.400
398.947 1464.000
398.328 1488.200
397.708 1479.200
397.089 1493.800
396.470 1491.600
395.850 1492.200
395.231 1467.200
394.612 1478.800
393.992 1496.000
393.373 1474.000
392.753 1486.000
392.134 1489.400
391.514 1512.400
390.893 1482.000
390.273 1501.800
389.654 1515.600
389.034 1527.400
388.414 1536.400
387.794 1542.200
387.174 1561.000
386.553 1563.600
385.933 1606.600
385.313 1622.000
384.693 1631.000
384.072 1637.600
383.452 1704.200
382.832 1747.400
382.212 1785.000
381.590 1819.200
380.970 1830.400
380.350 1881.800
379.729 1962.200
379.108 2048.600
378.487 2147.200
377.867 2201.200
377.245 2310.200
376.625 2377.600
376.004 2454.800
375.382 2457.600
374.762 2573.200
374.141 2607.200
373.519 2709.800
372.898 2776.600
372.276 2838.600
371.655 2873.400
371.033 2898.000
370.412 2910.200
369.791 2852.400
369.169 2885.200
368.548 2852.400
367.926 2859.000
367.305 2862.400
366.682 2900.400
366.061 3027.400
365.439 3069.000
364.818 3168.600
364.195 3323.800
363.573 3458.000
362.951 3500.200
362.329 3527.000
361.707 3471.400
361.084 3295.600
360.462 3175.000
359.840 3142.000
359.217 3057.600
358.596 3015.200
357.973 3020.200
357.350 3072.800
356.728 3071.800
356.105 3167.800
355.482 3265.800
354.860 3348.800
354.237 3399.600
353.614 3492.400
352.991 3574.800
352.369 3656.200
351.745 3776.200
351.122 3860.600
350.499 3879.000
349.876 4014.200
349.253 4158.400
348.629 4177.000
348.006 4219.600
347.382 4296.000
346.760 4313.600
346.136 4490.000
345.513 4747.200
344.889 5033.200
344.265 5393.600
343.641 5871.400
343.018 6561.400
342.395 7326.200
341.771 8227.400
341.147 9528.200
340.523 10939.000
339.899 12270.600
339.275 13273.400
338.651 13294.200
338.027 12411.600
337.403 11194.400
336.778 9983.400
336.154 8864.600
335.530 8125.200
334.905 7478.600
334.281 7004.800
333.657 6587.800
333.032 6187.200
332.408 5869.400
331.783 5500.000
331.159 5285.600
330.534 5009.200
329.909 4844.000
329.285 4615.800
328.659 4508.800
328.034 4352.400
327.409 4204.600
326.784 4108.800
326.159 3947.400
325.535 3734.400
324.910 3568.800
324.283 3450.800
323.658 3289.200
323.033 3147.400
322.408 3112.400
321.783 3086.000
321.157 3047.400
320.531 3056.800
319.906 3113.800
319.281 3163.400
318.654 3246.200
318.029 3323.600
317.403 3465.200
316.777 3500.400
316.151 3619.200
315.526 3633.200
314.899 3698.600
314.273 3714.800
313.648 3685.400
313.021 3655.000
312.395 3602.000
311.769 3543.000
311.142 3417.800
310.516 3378.600
309.889 3295.000
309.263 3238.000
308.637 3146.600
308.010 3114.600
307.384 3034.200
306.757 2939.600
306.131 2911.400
305.503 2916.200
304.877 2841.200
304.249 2775.600
303.623 2752.800
302.996 2754.000
302.369 2732.600
301.742 2715.800
301.115 2668.000
300.487 2678.000
299.861 2619.800
299.233 2615.200
298.605 2565.000
297.979 2559.600
297.351 2532.000
296.724 2509.200
296.096 2500.000
295.468 2509.600
294.841 2516.800
294.213 2535.400
293.585 2582.400
292.958 2611.600
292.330 2665.000
291.702 2766.400
291.075 2869.400
290.446 3012.800
289.818 3151.000
289.189 3301.000
288.562 3351.400
287.934 3343.800
287.305 3268.400
286.677 3108.800
286.049 2981.200
285.421 2833.000
284.792 2659.200
284.163 2541.600
283.534 2395.400
282.907 2299.600
282.278 2219.000
281.649 2157.000
281.020 2103.600
280.391 2041.000
279.762 2033.600
279.133 2004.800
278.505 1952.800
277.876 1947.200
277.247 1957.000
276.618 1929.200
275.989 1911.200
275.359 1915.200
274.730 1931.000
274.101 1912.200
273.471 1947.800
272.842 1922.400
272.212 1938.400
271.583 1873.000
270.953 1894.200
270.324 1861.600
269.694 1862.400
269.065 1848.600
268.435 1842.400
267.805 1817.800
267.175 1827.200
266.545 1806.000
265.916 1782.600
265.284 1790.600
264.655 1804.000
264.025 1764.400
263.395 1792.000
262.764 1741.600
262.134 1784.400
261.504 1753.200
260.873 1751.600
260.243 1769.400
259.612 1756.600
258.982 1770.400
258.352 1788.000
257.720 1773.000
257.090 1805.800
256.459 1791.800
255.829 1761.000
255.197 1780.200
254.566 1793.200
253.936 1806.200
253.305 1778.800
252.673 1810.600
252.042 1780.800
251.412 1788.600
250.780 1791.400
250.149 1744.000
249.518 1731.000
248.886 1727.400
248.255 1721.400
247.624 1690.600
246.992 1694.400
246.360 1676.000
245.728 1628.400
245.097 1612.800
244.466 1602.600
243.833 1592.800
243.202 1556.600
242.569 1582.000
241.938 1540.800
241.305 1525.000
240.674 1543.200
240.041 1493.600
239.410 1478.400
238.777 1481.000
238.145 1459.800
237.512 1413.200
236.881 1449.400
236.248 1409.200
235.616 1384.000
234.983 1400.800
234.351 1383.600
233.718 1342.200
233.085 1351.000
232.453 1327.200
231.820 1307.600
231.186 1308.600
230.554 1332.200
229.921 1278.200
229.289 1267.800
228.655 1291.000
228.022 1276.000
227.390 1269.000
226.756 1264.000
226.123 1241.000
225.489 1233.600
224.856 1267.800
224.223 1230.800
223.589 1213.600
222.955 1253.000
222.323 1229.200
221.689 1211.000
221.055 1196.600
220.421 1227.000
219.788 1234.200
219.154 1211.400
218.520 1213.200
217.886 1196.800
217.252 1186.200
216.618 1195.200
215.985 1173.800
215.350 1168.400
214.716 1159.600
214.082 1125.600
213.447 1139.800
212.813 1141.600
212.178 1119.000
