834.788 222.600
834.204 223.800
833.621 210.200
833.037 225.000
832.453 216.200
831.870 219.800
831.286 216.400
830.702 233.200
830.118 219.400
829.535 216.600
828.950 219.600
828.367 226.400
827.782 218.600
827.198 222.200
826.615 221.400
826.030 219.400
825.446 229.600
824.861 233.400
824.277 228.600
823.692 220.200
823.109 207.000
822.523 227.000
821.940 223.600
821.354 228.200
820.770 231.200
820.185 226.800
819.601 222.800
819.016 219.800
818.431 228.400
817.846 231.400
817.261 228.200
816.677 226.800
816.091 219.400
815.506 214.200
814.922 222.600
814.336 217.000
813.750 225.600
813.166 220.400
812.580 218.200
811.995 222.600
811.410 225.000
810.824 224.800
810.239 232.200
809.653 221.800
809.068 225.400
808.482 232.400
807.896 213.800
807.310 228.200
806.724 215.800
806.139 229.000
805.553 228.200
804.967 226.400
804.381 223.400
803.795 218.200
803.209 217.600
802.624 232.800
802.037 218.000
801.451 212.600
800.865 230.200
800.278 224.400
799.692 215.800
799.105 217.200
798.519 223.600
797.932 224.000
797.346 226.400
796.759 221.000
796.173 219.800
795.586 228.800
794.999 225.000
794.412 222.200
793.826 223.800
793.239 228.400
792.652 218.400
792.065 227.600
791.478 227.000
790.891 227.200
790.303 218.400
789.716 227.200
789.129 219.600
788.542 217.600
787.955 231.600
787.368 228.400
786.781 218.000
786.192 234.400
785.605 231.600
785.018 219.200
784.430 232.600
783.842 228.000
783.254 221.400
782.667 224.800
782.079 217.200
781.491 224.000
780.903 233.800
780.316 224.800
779.727 226.400
779.139 220.800
778.551 234.200
777.963 228.000
777.375 238.600
776.787 238.000
776.198 229.800
775.610 236.800
775.022 224.200
774.433 236.600
773.845 230.200
773.256 219.800
772.668 233.400
772.079 230.400
771.491 231.800
770.901 230.000
770.313 232.000
769.724 224.600
769.136 236.400
768.546 237.400
767.958 229.200
767.368 234.800
766.780 223.600
766.190 226.600
765.602 233.200
765.012 239.800
764.422 239.600
763.834 232.000
763.244 243.400
762.655 236.600
762.066 230.400
761.476 242.600
760.887 247.200
760.297 240.000
759.707 236.400
759.117 239.400
758.528 244.600
757.938 248.600
757.348 240.200
756.759 245.600
756.169 242.200
755.578 251.200
754.988 240.600
754.398 242.600
753.809 242.000
753.218 241.600
752.628 238.800
752.037 249.400
751.447 233.600
750.858 244.800
750.267 245.400
749.676 249.600
749.086 244.000
748.495 246.600
747.904 246.600
747.314 254.600
746.723 251.000
746.132 249.800
745.541 242.800
744.950 248.000
744.360 243.200
743.769 247.200
743.178 259.800
742.587 251.400
741.996 251.400
741.404 246.800
740.813 246.600
740.222 251.800
739.631 252.200
739.040 263.400
738.449 250.600
737.857 262.200
737.266 257.400
736.674 255.000
736.083 245.000
735.490 248.000
734.899 240.200
734.307 247.400
733.716 253.000
733.124 248.200
732.533 239.200
731.940 252.400
731.348 266.200
730.756 248.200
730.165 233.400
729.572 246.800
728.980 242.600
728.388 250.200
727.796 260.000
727.203 242.400
726.611 262.200
726.019 254.600
725.426 256.400
724.834 247.400
724.242 244.800
723.648 258.600
723.056 261.000
722.464 248.200
721.870 252.000
721.278 255.200
720.685 255.800
720.092 263.200
719.500 257.600
718.906 266.200
718.314 262.200
717.720 261.000
717.127 262.600
716.534 265.200
715.941 273.000
715.347 282.000
714.755 276.400
714.161 276.400
713.568 278.000
712.974 284.400
712.380 281.600
711.787 281.600
711.193 292.400
710.600 271.200
710.006 303.000
709.412 292.000
708.819 298.400
708.224 294.600
707.631 294.600
707.037 299.400
706.443 313.600
705.848 318.800
705.255 327.200
704.660 335.200
704.066 338.200
703.472 342.600
702.878 339.400
702.283 334.000
701.689 348.000
701.095 340.200
700.500 344.200
699.906 359.400
699.311 352.400
698.716 336.400
698.122 350.400
697.527 363.800
696.932 358.800
696.337 368.600
695.742 356.200
695.147 372.200
694.552 359.600
693.957 361.000
693.363 364.000
692.768 365.200
692.173 377.800
691.578 376.200
690.982 369.000
690.387 377.600
689.791 351.400
689.196 371.200
688.601 364.600
688.005 370.200
687.410 374.400
686.814 373.000
686.218 374.000
685.623 382.400
685.027 395.800
684.431 382.800
683.835 384.000
683.239 410.200
682.643 393.800
682.047 410.600
681.451 400.600
680.855 433.600
680.259 417.600
679.663 415.600
679.066 436.200
678.470 442.400
677.874 442.600
677.278 460.000
676.682 467.800
676.084 484.200
675.488 488.600
674.892 515.000
674.296 505.200
673.698 503.600
673.102 518.400
672.505 523.800
671.908 521.600
671.311 511.000
670.715 508.800
670.117 518.000
669.520 509.600
668.924 500.000
668.326 486.600
667.729 465.200
667.132 464.000
666.534 455.800
665.937 454.800
665.339 429.000
664.743 413.800
664.146 401.800
663.548 385.600
662.950 365.800
662.352 379.800
661.755 359.800
661.157 370.200
660.560 342.200
659.961 340.400
659.364 339.000
658.766 327.600
658.168 334.400
657.570 328.000
656.971 330.600
656.374 327.200
655.775 343.200
655.178 326.800
654.579 326.200
653.980 318.600
653.383 328.000
652.784 319.000
652.185 320.800
651.588 321.800
650.989 317.600
650.390 329.600
649.792 328.800
649.193 322.200
648.594 321.800
647.996 331.600
647.397 340.800
646.798 320.000
646.199 329.200
645.599 325.200
645.001 342.400
644.402 325.400
643.803 324.000
643.203 335.000
642.604 334.600
642.006 338.200
641.406 335.200
640.806 327.400
640.207 321.800
639.607 325.200
639.008 317.600
638.408 318.400
637.808 315.800
637.210 303.400
636.610 307.400
636.010 305.400
635.410 314.600
634.810 298.600
634.211 307.200
633.611 311.800
633.011 298.200
632.411 304.200
631.810 302.000
631.210 291.200
630.610 290.000
630.010 294.200
629.410 304.400
628.808 311.200
628.208 299.600
627.608 266.400
627.007 304.400
626.407 303.400
625.807 313.400
625.206 306.600
624.606 307.600
624.004 315.800
623.403 307.000
622.803 304.200
622.202 296.200
621.601 307.600
620.999 309.600
620.399 299.000
619.798 303.600
619.197 293.000
618.596 302.000
617.994 288.600
617.393 286.600
616.792 300.800
616.190 299.600
615.589 295.600
614.988 289.000
614.385 297.800
613.784 284.800
613.183 295.000
612.581 294.400
611.979 276.800
611.378 291.600
610.776 272.600
610.174 284.800
609.572 292.400
608.970 282.600
608.369 297.200
607.766 286.000
607.164 286.200
606.561 287.800
605.960 288.200
605.357 281.600
604.755 289.600
604.152 285.000
603.551 289.600
602.948 286.400
602.346 300.200
601.743 284.000
601.139 284.800
600.537 283.400
599.934 291.400
599.332 283.400
598.729 284.000
598.126 282.600
597.524 291.600
596.920 277.800
596.318 274.600
595.715 267.000
595.111 268.800
594.509 272.600
593.905 262.800
593.301 264.200
592.698 270.800
592.095 260.600
591.492 263.000
590.888 263.600
590.285 266.000
589.681 258.800
589.078 250.800
588.474 262.000
587.870 254.400
587.267 258.200
586.663 258.000
586.059 247.600
585.455 264.800
584.851 255.600
584.247 259.400
583.644 245.400
583.039 238.200
582.435 243.200
581.831 248.200
581.227 241.000
580.622 236.800
580.018 244.600
579.413 253.600
578.809 241.600
578.204 240.200
577.600 233.200
576.995 243.400
576.390 229.600
575.786 229.200
575.181 237.000
574.576 236.800
573.972 235.800
573.367 229.000
572.762 239.800
572.157 230.600
571.552 237.200
570.947 236.600
570.342 237.800
569.737 230.600
569.131 234.400
568.526 233.800
567.921 226.200
567.315 231.000
566.710 225.000
566.105 225.200
565.498 238.000
564.893 230.600
564.288 231.600
563.682 233.000
563.077 213.000
562.470 224.600
561.865 214.600
561.259 223.800
560.654 230.000
560.047 231.800
559.441 223.000
558.835 229.000
558.228 219.600
557.623 226.800
557.017 216.200
556.410 221.600
555.804 224.400
555.198 222.200
554.591 216.800
553.985 230.800
553.379 231.400
552.772 218.400
552.165 223.000
551.558 220.400
550.952 217.800
550.344 220.600
549.738 218.200
549.131 224.200
548.524 213.000
547.918 213.400
547.310 221.400
546.704 219.000
546.096 211.600
545.489 218.400
544.882 216.800
544.274 219.000
543.668 223.600
543.060 217.600
542.453 219.400
541.845 227.000
541.237 220.800
540.630 211.000
540.022 212.800
539.415 209.400
538.807 216.600
538.199 213.000
537.592 220.200
536.984 214.200
536.376 221.400
535.768 211.200
535.160 218.000
534.552 213.000
533.943 215.000
533.336 217.400
532.728 214.600
532.119 219.600
531.510 231.800
530.903 213.200
530.294 226.600
529.686 224.400
529.077 209.800
528.468 223.200
527.859 215.000
527.252 221.000
526.643 219.400
526.034 212.400
525.425 213.400
524.816 227.000
524.207 211.000
523.598 221.000
522.989 227.800
522.380 221.600
521.772 217.000
521.163 220.600
520.553 218.800
519.944 215.000
519.335 216.000
518.725 210.600
518.116 224.200
517.507 218.600
516.897 219.000
516.288 209.600
515.678 220.200
515.069 217.000
514.458 227.200
513.848 215.800
513.238 221.000
512.629 220.700
512.019 217.800
511.409 215.000
510.799 222.000
510.189 221.200
509.579 223.600
508.968 218.000
508.358 219.000
507.748 222.400
507.138 225.800
506.528 228.600
505.918 222.600
505.307 218.000
504.696 225.600
504.086 208.800
503.476 222.200
502.864 229.400
502.254 223.000
501.644 224.600
501.032 216.600
500.421 236.600
499.811 229.600
499.200 226.800
498.589 234.600
497.978 226.200
497.367 222.600
496.755 221.400
496.145 227.200
495.533 227.000
494.922 218.200
494.311 226.600
493.699 223.400
493.088 221.400
492.476 233.200
491.865 228.200
491.253 233.600
490.641 240.200
490.029 222.600
489.418 234.200
488.806 236.000
488.194 236.800
487.582 230.800
486.971 229.000
486.358 230.200
485.747 242.200
485.134 234.200
484.523 244.200
483.910 246.600
483.298 236.200
482.686 236.400
482.073 240.800
481.461 237.000
480.848 236.800
480.235 236.800
479.624 249.600
479.011 234.600
478.398 230.000
477.786 230.400
477.173 233.600
476.560 234.000
475.948 235.800
475.334 241.000
474.721 237.200
474.108 221.800
473.496 239.600
472.882 206.800
472.269 239.000
471.655 232.800
471.043 229.600
470.430 229.800
469.816 230.200
469.202 224.000
468.589 228.000
467.975 218.000
467.363 222.400
466.749 229.200
466.135 226.000
465.521 218.800
464.907 226.000
464.293 216.400
463.680 218.000
463.066 225.800
462.452 221.800
461.838 223.800
461.223 215.800
460.609 223.600
459.996 210.600
459.382 217.400
458.768 221.000
458.154 223.400
457.538 233.000
456.924 224.800
456.309 210.600
455.695 227.600
455.080 219.200
454.466 231.200
453.851 230.600
453.237 229.600
452.622 226.600
452.008 220.600
451.393 230.600
450.778 230.600
450.162 218.200
449.547 226.800
448.932 233.800
448.318 234.200
447.703 222.800
447.088 231.800
446.472 218.800
445.856 227.000
445.241 233.400
444.626 232.800
444.010 229.600
443.395 231.200
442.780 214.800
442.164 233.600
441.548 237.000
440.932 236.200
440.317 231.200
439.700 231.000
439.085 236.400
438.469 235.800
437.853 232.600
437.237 240.200
436.622 239.000
436.005 244.000
435.389 240.000
434.773 240.000
434.156 250.000
433.541 240.600
432.923 239.600
432.308 243.600
431.690 247.600
431.075 253.200
430.457 264.000
429.841 258.600
429.225 255.800
428.608 257.200
427.992 270.600
427.374 261.000
426.757 259.000
426.141 264.800
425.523 266.400
424.907 266.400
424.289 265.800
423.673 251.400
423.055 263.000
422.438 265.000
421.821 281.200
421.203 266.800
420.587 278.200
419.969 282.800
419.351 269.000
418.734 276.800
418.116 283.000
417.498 269.200
416.882 286.000
416.263 280.800
415.645 278.400
415.027 271.200
414.410 289.200
413.792 279.800
413.174 275.000
412.555 282.800
411.938 276.400
411.320 275.600
410.702 279.000
410.083 283.000
409.466 295.000
408.847 279.800
408.229 293.000
407.610 290.600
406.991 275.800
406.373 291.400
405.754 289.600
405.136 283.600
404.518 285.800
403.899 291.200
403.280 294.600
402.661 281.800
402.042 290.000
401.423 284.200
400.804 288.200
400.185 292.600
399.566 277.600
398.947 290.800
398.328 282.400
397.708 274.400
397.089 276.600
396.470 273.400
395.850 273.800
395.231 261.400
394.612 257.800
393.992 262.400
393.373 257.600
392.753 271.400
392.134 271.000
391.514 263.600
390.893 266.400
390.273 250.600
389.654 256.400
389.034 259.600
388.414 257.400
387.794 254.000
387.174 274.000
386.553 276.600
385.933 269.200
385.313 281.000
384.693 281.200
384.072 261.000
383.452 286.000
382.832 303.600
382.212 303.800
381.590 311.200
380.970 326.600
380.350 320.200
379.729 341.400
379.108 349.200
378.487 370.400
377.867 383.000
377.245 396.000
376.625 397.200
376.004 416.400
375.382 446.000
374.762 445.200
374.141 453.200
373.519 465.400
372.898 493.400
372.276 498.800
371.655 508.400
371.033 506.600
370.412 515.600
369.791 518.200
369.169 537.400
368.548 524.600
367.926 528.000
367.305 549.400
366.682 545.600
366.061 550.600
365.439 559.800
364.818 559.800
364.195 572.200
363.573 573.400
362.951 554.600
362.329 574.000
361.707 562.200
361.084 558.000
360.462 566.600
359.840 580.000
359.217 590.600
358.596 626.800
357.973 653.200
357.350 678.200
356.728 714.800
356.105 776.000
355.482 834.200
354.860 855.000
354.237 918.000
353.614 958.400
352.991 984.200
352.369 1047.800
351.745 1090.800
351.122 1130.000
350.499 1156.800
349.876 1177.600
349.253 1207.600
348.629 1220.400
348.006 1240.400
347.382 1249.800
346.760 1286.400
346.136 1340.200
345.513 1406.200
344.889 1540.200
344.265 1730.800
343.641 2006.400
343.018 2401.200
342.395 2951.600
341.771 3670.200
341.147 4573.200
340.523 5312.600
339.899 5816.600
339.275 5944.800
338.651 5614.200
338.027 5016.200
337.403 4125.400
336.778 3319.600
336.154 2678.000
335.530 2230.600
334.905 1890.800
334.281 1676.400
333.657 1504.800
333.032 1331.200
332.408 1201.400
331.783 1088.800
331.159 979.800
330.534 874.200
329.909 796.600
329.285 723.200
328.659 698.400
328.034 660.400
327.409 599.400
326.784 598.000
326.159 552.600
325.535 522.600
324.910 496.600
324.283 481.400
323.658 455.000
323.033 460.200
322.408 461.600
321.783 452.000
321.157 442.000
320.531 426.400
319.906 432.200
319.281 417.400
318.654 423.200
318.029 420.000
317.403 416.800
316.777 435.600
316.151 434.200
315.526 434.800
314.899 434.000
314.273 427.600
313.648 417.000
313.021 412.200
312.395 401.800
311.769 431.800
311.142 416.800
310.516 414.200
309.889 407.800
309.263 402.200
308.637 411.800
308.010 396.200
307.384 410.000
306.757 413.400
306.131 420.200
305.503 411.000
304.877 414.200
304.249 431.400
303.623 433.400
302.996 439.600
302.369 434.600
301.742 441.200
301.115 446.800
300.487 448.200
299.861 453.200
299.233 448.600
298.605 463.000
297.979 485.600
297.351 501.400
296.724 509.400
296.096 545.200
295.468 567.400
294.841 618.800
294.213 655.600
293.585 734.200
292.958 809.200
292.330 911.000
291.702 1059.200
291.075 1193.400
290.446 1337.400
289.818 1481.000
289.189 1535.400
288.562 1566.600
287.934 1551.400
287.305 1461.000
286.677 1332.000
286.049 1194.400
285.421 1060.200
284.792 910.800
284.163 824.600
283.534 743.200
282.907 642.600
282.278 627.400
281.649 578.600
281.020 544.200
280.391 508.600
279.762 480.800
279.133 465.400
278.505 469.600
277.876 453.200
277.247 439.000
276.618 433.400
275.989 432.200
275.359 449.800
274.730 430.000
274.101 456.200
273.471 455.000
272.842 441.400
272.212 443.400
271.583 424.400
270.953 415.400
270.324 402.400
269.694 403.600
269.065 384.200
268.435 391.200
267.805 389.600
267.175 388.200
266.545 399.800
265.916 379.800
265.284 378.000
264.655 387.200
264.025 382.800
263.395 382.800
262.764 379.200
262.134 360.800
261.504 372.200
260.873 371.600
260.243 364.400
259.612 369.000
258.982 368.000
258.352 372.400
257.720 364.600
257.090 385.600
256.459 378.200
255.829 379.200
255.197 399.400
254.566 385.600
253.936 379.200
253.305 375.200
252.673 388.400
252.042 382.800
251.412 370.200
250.780 364.000
250.149 370.200
249.518 351.800
248.886 346.400
248.255 337.400
247.624 323.600
246.992 311.000
246.360 316.000
245.728 309.000
245.097 285.600
244.466 282.400
243.833 285.200
243.202 287.800
242.569 276.200
241.938 269.000
241.305 266.400
240.674 275.000
240.041 259.600
239.410 258.200
238.777 256.400
238.145 254.600
237.512 260.000
236.881 256.400
236.248 249.800
235.616 243.000
234.983 244.600
234.351 239.400
233.718 235.400
233.085 234.200
232.453 224.800
231.820 233.600
231.186 234.800
230.554 236.600
229.921 228.800
229.289 220.200
228.655 220.400
228.022 226.200
227.390 224.800
226.756 215.000
226.123 223.400
225.489 218.800
224.856 214.000
224.223 215.800
223.589 210.400
222.955 216.800
222.323 216.400
221.689 224.400
221.055 221.200
220.421 225.400
219.788 213.800
219.154 211.400
218.520 213.000
217.886 220.000
217.252 206.000
216.618 210.000
215.985 216.400
215.350 207.800
214.716 208.200
214.082 208.600
213.447 199.200
212.813 201.600
212.178 192.600
