834.788 364.200
834.204 363.400
833.621 346.600
833.037 350.200
832.453 362.000
831.870 368.200
831.286 360.600
830.702 349.600
830.118 363.400
829.535 348.200
828.950 350.000
828.367 353.200
827.782 351.400
827.198 357.000
826.615 359.400
826.030 348.200
825.446 363.000
824.861 362.400
824.277 358.400
823.692 358.400
823.109 354.400
822.523 347.600
821.940 353.200
821.354 355.600
820.770 356.600
820.185 361.200
819.601 363.400
819.016 353.400
818.431 362.200
817.846 356.800
817.261 360.600
816.677 347.400
816.091 352.600
815.506 358.200
814.922 343.400
814.336 354.600
813.750 365.600
813.166 353.200
812.580 367.000
811.995 361.200
811.410 348.000
810.824 353.800
810.239 367.000
809.653 340.600
809.068 340.600
808.482 362.400
807.896 345.000
807.310 358.000
806.724 365.800
806.139 356.200
805.553 348.600
804.967 362.600
804.381 358.600
803.795 355.400
803.209 357.000
802.624 352.800
802.037 357.200
801.451 355.400
800.865 355.200
800.278 350.600
799.692 352.000
799.105 361.200
798.519 360.400
797.932 361.000
797.346 338.200
796.759 363.400
796.173 361.200
795.586 348.200
794.999 352.400
794.412 367.800
793.826 353.600
793.239 360.600
792.652 356.400
792.065 347.000
791.478 354.200
790.891 362.400
790.303 363.400
789.716 345.000
789.129 347.800
788.542 357.400
787.955 353.600
787.368 356.000
786.781 354.600
786.192 352.800
785.605 354.800
785.018 349.000
784.430 362.400
783.842 344.800
783.254 359.800
782.667 359.800
782.079 363.800
781.491 363.200
780.903 358.400
780.316 378.200
779.727 368.600
779.139 367.200
778.551 365.600
777.963 351.800
777.375 358.800
776.787 365.400
776.198 362.800
775.610 361.400
775.022 368.400
774.433 368.600
773.845 377.800
773.256 356.800
772.668 369.600
772.079 378.200
771.491 363.000
770.901 364.200
770.313 366.400
769.724 357.000
769.136 371.000
768.546 368.200
767.958 384.600
767.368 375.200
766.780 373.800
766.190 389.000
765.602 375.800
765.012 364.000
764.422 381.400
763.834 375.400
763.244 368.400
762.655 371.400
762.066 385.400
761.476 378.200
760.887 369.600
760.297 371.800
759.707 382.800
759.117 375.400
758.528 380.800
757.938 389.000
757.348 384.600
756.759 379.200
756.169 386.800
755.578 379.400
754.988 378.200
754.398 377.600
753.809 379.200
753.218 389.800
752.628 385.000
752.037 395.800
751.447 395.200
750.858 391.600
750.267 389.000
749.676 392.000
749.086 383.400
748.495 400.000
747.904 382.800
747.314 380.800
746.723 385.400
746.132 388.800
745.541 379.200
744.950 389.400
744.360 384.200
743.769 390.600
743.178 391.000
742.587 398.000
741.996 401.000
741.404 407.600
740.813 393.800
740.222 396.800
739.631 399.400
739.040 408.200
738.449 394.400
737.857 405.800
737.266 397.600
736.674 403.200
736.083 400.800
735.490 407.000
734.899 393.800
734.307 394.600
733.716 405.600
733.124 395.200
732.533 414.200
731.940 412.800
731.348 410.400
730.756 406.600
730.165 408.000
729.572 402.000
728.980 398.200
728.388 417.600
727.796 415.000
727.203 409.000
726.611 418.800
726.019 414.600
725.426 414.400
724.834 416.400
724.242 440.400
723.648 430.800
723.056 438.200
722.464 433.000
721.870 424.400
721.278 435.800
720.685 428.800
720.092 424.000
719.500 439.600
718.906 456.000
718.314 441.200
717.720 465.400
717.127 458.200
716.534 462.800
715.941 464.800
715.347 472.600
714.755 466.600
714.161 476.200
713.568 482.600
712.974 505.000
712.380 498.800
711.787 501.000
711.193 507.000
710.600 509.800
710.006 517.400
709.412 520.000
708.819 526.200
708.224 555.000
707.631 561.200
707.037 559.200
706.443 571.200
705.848 580.400
705.255 578.600
704.660 588.800
704.066 624.200
703.472 596.600
702.878 606.600
702.283 587.200
701.689 600.400
701.095 608.600
700.500 598.600
699.906 601.400
699.311 583.400
698.716 592.800
698.122 600.600
697.527 605.200
696.932 603.600
696.337 592.800
695.742 608.400
695.147 618.800
694.552 616.600
693.957 615.000
693.363 622.000
692.768 625.200
692.173 635.200
691.578 623.400
690.982 636.400
690.387 637.200
689.791 645.800
689.196 649.200
688.601 666.600
688.005 661.600
687.410 680.200
686.814 686.200
686.218 707.800
685.623 720.800
685.027 748.600
684.431 760.200
683.835 771.800
683.239 777.000
682.643 799.400
682.047 825.000
681.451 831.000
680.855 843.600
680.259 839.200
679.663 854.000
679.066 867.000
678.470 850.800
677.874 855.200
677.278 877.200
676.682 874.800
676.084 874.400
675.488 874.800
674.892 861.400
674.296 853.200
673.698 869.000
673.102 860.200
672.505 860.200
671.908 850.400
671.311 833.200
670.715 832.000
670.117 818.800
669.520 802.600
668.924 807.200
668.326 763.800
667.729 774.000
667.132 747.400
666.534 742.000
665.937 724.400
665.339 721.600
664.743 693.200
664.146 697.600
663.548 695.400
662.950 671.800
662.352 652.400
661.755 655.200
661.157 643.800
660.560 634.400
659.961 629.000
659.364 645.000
658.766 613.400
658.168 631.200
657.570 633.200
656.971 618.600
656.374 635.800
655.775 625.200
655.178 623.000
654.579 606.800
653.980 612.800
653.383 625.400
652.784 598.200
652.185 602.600
651.588 598.200
650.989 585.200
650.390 603.200
649.792 610.200
649.193 613.600
648.594 592.000
647.996 601.000
647.397 618.600
646.798 605.400
646.199 590.000
645.599 591.000
645.001 594.800
644.402 591.400
643.803 584.800
643.203 572.800
642.604 580.000
642.006 566.200
641.406 557.600
640.806 576.600
640.207 558.600
639.607 534.800
639.008 554.400
638.408 536.000
637.808 549.000
637.210 556.000
636.610 523.800
636.010 544.000
635.410 531.400
634.810 517.200
634.211 526.200
633.611 535.000
633.011 523.800
632.411 522.800
631.810 512.200
631.210 499.000
630.610 515.200
630.010 508.600
629.410 497.600
628.808 502.000
628.208 492.600
627.608 465.800
627.007 496.400
626.407 483.200
625.807 478.200
625.206 493.600
624.606 496.000
624.004 476.400
623.403 483.200
622.803 477.600
622.202 478.600
621.601 485.000
620.999 470.600
620.399 476.200
619.798 479.800
619.197 491.000
618.596 473.600
617.994 478.600
617.393 466.000
616.792 474.600
616.190 470.600
615.589 466.400
614.988 474.000
614.385 463.400
613.784 459.800
613.183 454.200
612.581 447.000
611.979 461.800
611.378 450.600
610.776 456.200
610.174 459.000
609.572 443.000
608.970 462.000
608.369 457.800
607.766 454.400
607.164 458.200
606.561 462.400
605.960 453.000
605.357 437.400
604.755 451.800
604.152 446.200
603.551 447.800
602.948 443.600
602.346 443.600
601.743 436.200
601.139 435.200
600.537 434.200
599.934 426.800
599.332 428.400
598.729 437.400
598.126 432.600
597.524 451.800
596.920 419.600
596.318 432.200
595.715 425.000
595.111 412.600
594.509 419.000
593.905 424.800
593.301 401.200
592.698 414.800
592.095 416.000
591.492 412.600
590.888 425.800
590.285 404.000
589.681 420.200
589.078 412.000
588.474 404.000
587.870 411.200
587.267 377.800
586.663 387.200
586.059 406.200
585.455 386.000
584.851 404.400
584.247 394.000
583.644 407.800
583.039 391.000
582.435 381.800
581.831 387.600
581.227 390.800
580.622 379.400
580.018 374.600
579.413 386.200
578.809 391.000
578.204 388.400
577.600 378.000
576.995 385.000
576.390 375.400
575.786 363.400
575.181 368.400
574.576 378.200
573.972 369.400
573.367 372.600
572.762 367.400
572.157 378.800
571.552 361.200
570.947 373.400
570.342 371.200
569.737 358.800
569.131 362.600
568.526 361.600
567.921 365.200
567.315 374.000
566.710 360.800
566.105 363.000
565.498 353.800
564.893 353.600
564.288 354.200
563.682 369.400
563.077 355.000
562.470 358.200
561.865 347.800
561.259 357.400
560.654 358.600
560.047 356.400
559.441 357.600
558.835 360.800
558.228 355.000
557.623 359.400
557.017 367.000
556.410 365.800
555.804 359.200
555.198 339.800
554.591 355.200
553.985 360.600
553.379 340.000
552.772 345.400
552.165 353.000
551.558 357.800
550.952 359.800
550.344 360.000
549.738 353.200
549.131 351.200
548.524 357.000
547.918 350.400
547.310 348.400
546.704 352.800
546.096 355.600
545.489 350.400
544.882 353.800
544.274 365.600
543.668 358.400
543.060 346.800
542.453 352.000
541.845 343.400
541.237 340.600
540.630 337.000
540.022 358.600
539.415 348.200
538.807 357.400
538.199 362.600
537.592 350.000
536.984 337.600
536.376 356.600
535.768 357.000
535.160 344.600
534.552 362.800
533.943 354.000
533.336 364.800
532.728 364.200
532.119 356.000
531.510 362.400
530.903 352.000
530.294 356.800
529.686 354.600
529.077 353.200
528.468 358.200
527.859 362.000
527.252 358.800
526.643 364.600
526.034 363.200
525.425 375.000
524.816 363.400
524.207 369.800
523.598 360.600
522.989 355.200
522.380 376.800
521.772 361.400
521.163 371.400
520.553 363.400
519.944 361.600
519.335 351.200
518.725 363.800
518.116 362.200
517.507 374.000
516.897 355.200
516.288 360.400
515.678 364.600
515.069 364.200
514.458 371.600
513.848 371.400
513.238 365.200
512.629 371.400
512.019 368.600
511.409 360.600
510.799 369.200
510.189 365.800
509.579 362.600
508.968 372.000
508.358 361.400
507.748 361.600
507.138 363.000
506.528 354.600
505.918 364.600
505.307 371.800
504.696 365.600
504.086 363.400
503.476 363.800
502.864 364.800
502.254 382.000
501.644 360.600
501.032 372.200
500.421 378.600
499.811 379.600
499.200 381.000
498.589 379.600
497.978 370.800
497.367 373.000
496.755 374.600
496.145 376.400
495.533 392.800
494.922 386.800
494.311 369.800
493.699 379.400
493.088 367.800
492.476 374.800
491.865 387.600
491.253 387.600
490.641 393.600
490.029 389.400
489.418 390.400
488.806 384.000
488.194 398.600
487.582 396.400
486.971 412.800
486.358 403.800
485.747 422.400
485.134 411.000
484.523 428.800
483.910 424.600
483.298 431.800
482.686 441.000
482.073 447.000
481.461 459.200
480.848 474.400
480.235 497.800
479.624 510.200
479.011 506.000
478.398 526.800
477.786 549.800
477.173 546.600
476.560 559.400
475.948 546.200
475.334 539.800
474.721 528.400
474.108 513.000
473.496 512.600
472.882 493.400
472.269 468.800
471.655 459.400
471.043 457.200
470.430 443.200
469.816 437.800
469.202 439.200
468.589 438.600
467.975 419.400
467.363 407.800
466.749 413.600
466.135 396.600
465.521 416.800
464.907 392.400
464.293 394.400
463.680 388.400
463.066 400.800
462.452 378.000
461.838 374.200
461.223 394.400
460.609 384.600
459.996 386.800
459.382 365.400
458.768 383.200
458.154 383.200
457.538 392.400
456.924 378.800
456.309 383.400
455.695 367.200
455.080 372.000
454.466 382.600
453.851 393.200
453.237 379.000
452.622 381.800
452.008 386.600
451.393 379.200
450.778 385.200
450.162 385.000
449.547 394.200
448.932 367.000
448.318 383.400
447.703 379.800
447.088 390.000
446.472 375.400
445.856 386.200
445.241 372.600
444.626 376.400
444.010 379.800
443.395 370.600
442.780 384.800
442.164 381.400
441.548 392.200
440.932 404.000
440.317 385.200
439.700 386.200
439.085 395.400
438.469 396.400
437.853 397.400
437.237 377.400
436.622 403.000
436.005 398.800
435.389 389.600
434.773 393.600
434.156 404.000
433.541 392.400
432.923 399.200
432.308 415.200
431.690 408.400
431.075 411.400
430.457 406.800
429.841 418.000
429.225 412.400
428.608 405.800
427.992 416.600
427.374 411.800
426.757 423.600
426.141 401.400
425.523 406.800
424.907 434.000
424.289 413.200
423.673 413.600
423.055 412.400
422.438 431.600
421.821 420.400
421.203 419.600
420.587 409.800
419.969 437.600
419.351 433.400
418.734 427.000
418.116 441.000
417.498 431.600
416.882 431.200
416.263 431.200
415.645 431.200
415.027 430.600
414.410 435.200
413.792 431.400
413.174 438.000
412.555 428.400
411.938 434.000
411.320 438.600
410.702 432.000
410.083 438.400
409.466 441.000
408.847 442.200
408.229 443.400
407.610 436.200
406.991 438.600
406.373 439.600
405.754 434.000
405.136 438.000
404.518 438.600
403.899 439.400
403.280 439.200
402.661 435.600
402.042 442.200
401.423 438.000
400.804 433.200
400.185 414.400
399.566 440.200
398.947 429.200
398.328 431.200
397.708 425.800
397.089 433.800
396.470 424.800
395.850 426.600
395.231 424.200
394.612 418.600
393.992 420.200
393.373 429.600
392.753 421.400
392.134 418.000
391.514 429.800
390.893 435.000
390.273 423.800
389.654 426.600
389.034 419.200
388.414 426.400
387.794 432.800
387.174 436.600
386.553 448.400
385.933 448.800
385.313 451.600
384.693 468.400
384.072 484.600
383.452 503.800
382.832 514.400
382.212 538.000
381.590 575.600
380.970 591.000
380.350 619.400
379.729 643.200
379.108 653.600
378.487 674.800
377.867 696.000
377.245 711.200
376.625 720.000
376.004 731.200
375.382 742.800
374.762 748.600
374.141 762.200
373.519 782.200
372.898 780.200
372.276 808.600
371.655 815.000
371.033 838.000
370.412 876.600
369.791 893.000
369.169 931.000
368.548 967.200
367.926 1003.400
367.305 1070.000
366.682 1084.400
366.061 1126.400
365.439 1101.400
364.818 1143.800
364.195 1138.200
363.573 1096.400
362.951 1074.400
362.329 1080.000
361.707 1064.800
361.084 1037.400
360.462 1035.600
359.840 1072.200
359.217 1095.000
358.596 1117.000
357.973 1136.600
357.350 1173.800
356.728 1213.600
356.105 1193.400
355.482 1233.800
354.860 1240.600
354.237 1275.000
353.614 1298.000
352.991 1311.800
352.369 1352.600
351.745 1401.600
351.122 1427.800
350.499 1472.000
349.876 1504.600
349.253 1575.600
348.629 1675.400
348.006 1765.400
347.382 1927.400
346.760 2123.000
346.136 2378.600
345.513 2778.000
344.889 3291.800
344.265 3950.200
343.641 4755.000
343.018 5496.600
342.395 6066.000
341.771 6469.600
341.147 6540.400
340.523 6159.200
339.899 5720.400
339.275 5178.400
338.651 4583.200
338.027 4123.600
337.403 3677.400
336.778 3317.000
336.154 3042.800
335.530 2757.200
334.905 2527.400
334.281 2333.000
333.657 2123.800
333.032 1986.400
332.408 1845.600
331.783 1710.400
331.159 1614.600
330.534 1509.400
329.909 1443.200
329.285 1356.600
328.659 1263.400
328.034 1186.200
327.409 1073.800
326.784 1006.200
326.159 943.000
325.535 910.600
324.910 845.000
324.283 836.800
323.658 802.400
323.033 789.000
322.408 792.200
321.783 771.200
321.157 793.000
320.531 817.800
319.906 818.600
319.281 860.000
318.654 871.200
318.029 890.200
317.403 902.400
316.777 891.000
316.151 889.400
315.526 909.600
314.899 906.600
314.273 907.200
313.648 877.600
313.021 889.600
312.395 867.400
311.769 873.400
311.142 872.800
310.516 851.200
309.889 861.600
309.263 859.200
308.637 847.800
308.010 859.000
307.384 828.400
306.757 848.000
306.131 844.400
305.503 840.800
304.877 833.200
304.249 830.600
303.623 846.200
302.996 838.200
302.369 831.800
301.742 842.800
301.115 858.000
300.487 852.800
299.861 843.400
299.233 881.200
298.605 877.200
297.979 892.200
297.351 919.600
296.724 943.800
296.096 960.400
295.468 979.200
294.841 1003.000
294.213 1098.000
293.585 1144.000
292.958 1191.200
292.330 1226.200
291.702 1246.200
291.075 1246.600
290.446 1238.600
289.818 1193.000
289.189 1155.600
288.562 1097.000
287.934 1006.200
287.305 939.400
286.677 864.000
286.049 851.800
285.421 803.000
284.792 788.800
284.163 772.800
283.534 734.800
282.907 696.200
282.278 705.400
281.649 695.800
281.020 692.000
280.391 669.400
279.762 680.400
279.133 653.400
278.505 653.400
277.876 643.400
277.247 628.800
276.618 614.600
275.989 608.800
275.359 597.400
274.730 577.200
274.101 585.200
273.471 574.200
272.842 558.200
272.212 537.800
271.583 539.400
270.953 537.200
270.324 539.800
269.694 538.200
269.065 544.600
268.435 527.600
267.805 535.200
267.175 526.800
266.545 532.400
265.916 538.000
265.284 552.800
264.655 546.800
264.025 546.200
263.395 531.400
262.764 527.600
262.134 522.200
261.504 549.000
260.873 549.800
260.243 569.800
259.612 558.600
258.982 548.000
258.352 550.200
257.720 558.800
257.090 552.800
256.459 560.000
255.829 560.400
255.197 561.200
254.566 547.200
253.936 567.800
253.305 552.400
252.673 546.200
252.042 536.800
251.412 532.200
250.780 520.000
250.149 495.000
249.518 489.000
248.886 479.600
248.255 467.600
247.624 461.200
246.992 451.800
246.360 443.400
245.728 433.600
245.097 426.400
244.466 422.000
243.833 400.000
243.202 397.600
242.569 401.600
241.938 383.400
241.305 377.600
240.674 370.000
240.041 371.400
239.410 371.600
238.777 361.000
238.145 359.800
237.512 361.400
236.881 360.600
236.248 344.600
235.616 344.400
234.983 340.000
234.351 335.400
233.718 320.000
233.085 321.400
232.453 332.000
231.820 319.800
231.186 327.000
230.554 307.400
229.921 311.800
229.289 311.000
228.655 313.600
228.022 309.400
227.390 311.600
226.756 311.600
226.123 325.200
225.489 305.200
224.856 313.800
224.223 308.200
223.589 306.800
222.955 308.400
222.323 301.200
221.689 296.400
221.055 306.200
220.421 292.600
219.788 300.000
219.154 303.200
218.520 304.000
217.886 288.800
217.252 288.400
216.618 292.400
215.985 293.000
215.350 283.000
214.716 284.400
214.082 276.000
213.447 277.600
212.813 281.400
212.178 262.600
