834.788 1388.200
834.204 1375.000
833.621 1378.200
833.037 1398.400
832.453 1372.800
831.870 1388.200
831.286 1362.600
830.702 1380.800
830.118 1370.800
829.535 1358.600
828.950 1378.000
828.367 1390.800
827.782 1359.200
827.198 1352.800
826.615 1355.800
826.030 1372.000
825.446 1350.600
824.861 1357.800
824.277 1365.000
823.692 1365.200
823.109 1369.400
822.523 1360.800
821.940 1386.000
821.354 1356.600
820.770 1342.600
820.185 1353.000
819.601 1372.800
819.016 1358.000
818.431 1388.400
817.846 1363.000
817.261 1369.600
816.677 1357.000
816.091 1363.200
815.506 1364.000
814.922 1342.200
814.336 1361.800
813.750 1368.600
813.166 1340.200
812.580 1346.800
811.995 1368.600
811.410 1396.600
810.824 1401.800
810.239 1357.000
809.653 1348.000
809.068 1338.000
808.482 1344.600
807.896 1353.800
807.310 1337.200
806.724 1324.400
806.139 1359.800
805.553 1344.800
804.967 1360.000
804.381 1358.600
803.795 1341.200
803.209 1306.000
802.624 1334.200
802.037 1326.000
801.451 1325.400
800.865 1330.400
800.278 1327.400
799.692 1351.600
799.105 1324.000
798.519 1334.600
797.932 1343.000
797.346 1338.200
796.759 1329.400
796.173 1328.200
795.586 1315.600
794.999 1349.400
794.412 1321.200
793.826 1337.400
793.239 1309.400
792.652 1340.200
792.065 1309.200
791.478 1315.200
790.891 1333.800
790.303 1349.600
789.716 1306.000
789.129 1329.400
788.542 1332.600
787.955 1305.800
787.368 1306.600
786.781 1329.200
786.192 1309.000
785.605 1327.400
785.018 1333.800
784.430 1330.200
783.842 1313.200
783.254 1305.800
782.667 1316.400
782.079 1329.600
781.491 1325.000
780.903 1315.000
780.316 1314.000
779.727 1303.600
779.139 1312.600
778.551 1316.800
777.963 1325.800
777.375 1330.000
776.787 1296.400
776.198 1314.600
775.610 1304.000
775.022 1306.400
774.433 1318.600
773.845 1318.600
773.256 1325.200
772.668 1334.200
772.079 1318.400
771.491 1300.200
770.901 1307.000
770.313 1291.000
769.724 1326.400
769.136 1301.800
768.546 1303.400
767.958 1305.200
767.368 1295.400
766.780 1297.400
766.190 1300.200
765.602 1293.400
765.012 1297.000
764.422 1312.200
763.834 1312.600
763.244 1309.400
762.655 1305.400
762.066 1303.400
761.476 1323.600
760.887 1295.200
760.297 1299.600
759.707 1283.200
759.117 1318.200
758.528 1300.000
757.938 1294.200
757.348 1303.200
756.759 1280.800
756.169 1296.800
755.578 1316.400
754.988 1280.400
754.398 1285.400
753.809 1301.200
753.218 1295.400
752.628 1299.000
752.037 1274.200
751.447 1297.600
750.858 1279.400
750.267 1285.000
749.676 1280.000
749.086 1285.000
748.495 1281.400
747.904 1279.800
747.314 1271.800
746.723 1282.000
746.132 1276.800
745.541 1325.000
744.950 1304.000
744.360 1270.800
743.769 1296.200
743.178 1271.200
742.587 1285.400
741.996 1273.600
741.404 1287.400
740.813 1282.000
740.222 1277.600
739.631 1275.400
739.040 1283.800
738.449 1271.000
737.857 1280.800
737.266 1265.400
736.674 1285.000
736.083 1253.000
735.490 1286.600
734.899 1272.400
734.307 1277.800
733.716 1278.800
733.124 1244.800
732.533 1284.600
731.940 1265.800
731.348 1275.400
730.756 1257.200
730.165 1275.000
729.572 1264.000
728.980 1262.600
728.388 1276.400
727.796 1282.200
727.203 1230.600
726.611 1259.600
726.019 1263.400
725.426 1275.000
724.834 1260.800
724.242 1276.000
723.648 1277.200
723.056 1270.800
722.464 1251.200
721.870 1262.400
721.278 1265.000
720.685 1260.400
720.092 1247.000
719.500 1253.600
718.906 1261.600
718.314 1270.400
717.720 1247.400
717.127 1241.200
716.534 1262.800
715.941 1271.600
715.347 1273.000
714.755 1292.000
714.161 1261.400
713.568 1277.800
712.974 1283.200
712.380 1283.800
711.787 1267.200
711.193 1267.600
710.600 1259.800
710.006 1261.800
709.412 1279.800
708.819 1285.400
708.224 1267.600
707.631 1288.200
707.037 1250.600
706.443 1247.800
705.848 1279.000
705.255 1259.400
704.660 1259.600
704.066 1271.800
703.472 1274.600
702.878 1261.600
702.283 1288.000
701.689 1286.600
701.095 1279.600
700.500 1291.200
699.906 1253.600
699.311 1257.400
698.716 1267.200
698.122 1295.400
697.527 1269.600
696.932 1275.400
696.337 1290.600
695.742 1272.800
695.147 1245.600
694.552 1270.000
693.957 1286.600
693.363 1288.200
692.768 1284.800
692.173 1256.000
691.578 1265.200
690.982 1307.600
690.387 1288.200
689.791 1259.200
689.196 1274.200
688.601 1267.800
688.005 1277.000
687.410 1277.000
686.814 1256.200
686.218 1288.200
685.623 1263.600
685.027 1275.400
684.431 1281.200
683.835 1281.000
683.239 1277.000
682.643 1299.800
682.047 1260.000
681.451 1295.200
680.855 1273.000
680.259 1289.400
679.663 1289.400
679.066 1302.200
678.470 1318.400
677.874 1311.600
677.278 1311.600
676.682 1289.000
676.084 1320.800
675.488 1327.200
674.892 1309.800
674.296 1343.200
673.698 1332.000
673.102 1324.800
672.505 1346.200
671.908 1337.600
671.311 1315.600
670.715 1333.200
670.117 1346.400
669.520 1326.400
668.924 1317.400
668.326 1336.000
667.729 1317.600
667.132 1305.600
666.534 1317.800
665.937 1283.600
665.339 1267.400
664.743 1284.800
664.146 1247.600
663.548 1265.200
662.950 1271.800
662.352 1287.800
661.755 1256.000
661.157 1241.000
660.560 1238.600
659.961 1248.600
659.364 1266.600
658.766 1259.400
658.168 1250.600
657.570 1237.000
656.971 1210.400
656.374 1230.600
655.775 1223.400
655.178 1246.200
654.579 1194.800
653.980 1242.200
653.383 1217.200
652.784 1234.600
652.185 1227.400
651.588 1216.200
650.989 1210.400
650.390 1203.000
649.792 1219.200
649.193 1215.400
648.594 1225.000
647.996 1195.400
647.397 1207.000
646.798 1220.800
646.199 1207.800
645.599 1207.800
645.001 1228.000
644.402 1194.000
643.803 1219.800
643.203 1204.800
642.604 1202.000
642.006 1219.400
641.406 1175.600
640.806 1199.000
640.207 1204.400
639.607 1186.400
639.008 1185.400
638.408 1183.600
637.808 1202.000
637.210 1194.000
636.610 1195.000
636.010 1184.600
635.410 1167.800
634.810 1189.800
634.211 1166.800
633.611 1172.200
633.011 1162.800
632.411 1169.400
631.810 1161.600
631.210 1150.400
630.610 1150.000
630.010 1146.200
629.410 1180.600
628.808 1176.600
628.208 1182.400
627.608 1122.200
627.007 1160.800
626.407 1188.200
625.807 1167.600
625.206 1174.400
624.606 1191.200
624.004 1176.400
623.403 1167.200
622.803 1174.200
622.202 1181.000
621.601 1151.000
620.999 1164.200
620.399 1160.600
619.798 1168.400
619.197 1158.800
618.596 1174.800
617.994 1148.000
617.393 1173.400
616.792 1152.000
616.190 1158.800
615.589 1152.600
614.988 1138.800
614.385 1138.000
613.784 1147.800
613.183 1143.800
612.581 1139.200
611.979 1146.800
611.378 1136.200
610.776 1145.200
610.174 1150.400
609.572 1136.200
608.970 1137.600
608.369 1144.600
607.766 1158.200
607.164 1162.400
606.561 1134.400
605.960 1139.400
605.357 1133.200
604.755 1135.600
604.152 1162.800
603.551 1131.600
602.948 1130.600
602.346 1118.000
601.743 1106.400
601.139 1142.600
600.537 1138.000
599.934 1138.000
599.332 1133.200
598.729 1134.000
598.126 1128.200
597.524 1141.800
596.920 1113.200
596.318 1132.000
595.715 1127.000
595.111 1132.200
594.509 1100.200
593.905 1134.200
593.301 1124.600
592.698 1100.000
592.095 1128.000
591.492 1117.800
590.888 1148.800
590.285 1106.400
589.681 1116.000
589.078 1094.200
588.474 1103.600
587.870 1113.800
587.267 1095.800
586.663 1125.200
586.059 1125.000
585.455 1104.400
584.851 1086.200
584.247 1110.400
583.644 1087.400
583.039 1092.600
582.435 1079.000
581.831 1093.800
581.227 1075.800
580.622 1094.600
580.018 1097.000
579.413 1082.200
578.809 1090.000
578.204 1082.800
577.600 1091.800
576.995 1094.200
576.390 1099.800
575.786 1083.400
575.181 1092.000
574.576 1085.000
573.972 1073.600
573.367 1095.000
572.762 1064.200
572.157 1060.000
571.552 1071.600
570.947 1068.200
570.342 1075.000
569.737 1092.400
569.131 1055.800
568.526 1069.800
567.921 1071.200
567.315 1077.800
566.710 1055.000
566.105 1084.000
565.498 1076.200
564.893 1059.400
564.288 1049.400
563.682 1049.800
563.077 1052.000
562.470 1045.200
561.865 1044.200
561.259 1070.000
560.654 1061.000
560.047 1053.800
559.441 1067.400
558.835 1074.000
558.228 1073.000
557.623 1058.600
557.017 1057.800
556.410 1057.600
555.804 1057.800
555.198 1048.600
554.591 1063.600
553.985 1052.200
553.379 1065.000
552.772 1057.800
552.165 1061.400
551.558 1081.200
550.952 1040.200
550.344 1046.200
549.738 1070.400
549.131 1050.400
548.524 1047.200
547.918 1035.600
547.310 1041.800
546.704 1035.400
546.096 1056.800
545.489 1049.800
544.882 1057.600
544.274 1032.000
543.668 1035.200
543.060 1061.200
542.453 1033.200
541.845 1039.600
541.237 1035.400
540.630 1048.800
540.022 1025.800
539.415 1033.800
538.807 1025.600
538.199 1035.800
537.592 1023.400
536.984 1038.400
536.376 1016.200
535.768 1041.200
535.160 1017.800
534.552 1042.800
533.943 1014.400
533.336 1021.600
532.728 1011.400
532.119 1031.000
531.510 1025.800
530.903 1029.400
530.294 1016.200
529.686 1017.000
529.077 1030.400
528.468 1019.800
527.859 1014.000
527.252 1022.600
526.643 1017.200
526.034 1009.200
525.425 1018.000
524.816 1016.600
524.207 1021.200
523.598 1020.800
522.989 1013.000
522.380 999.800
521.772 1019.800
521.163 995.200
520.553 999.600
519.944 1012.600
519.335 1024.600
518.725 999.400
518.116 1011.200
517.507 1003.600
516.897 985.800
516.288 1005.400
515.678 982.600
515.069 1011.800
514.458 1015.800
513.848 1017.800
513.238 1012.200
512.629 1003.400
512.019 994.600
511.409 1011.400
510.799 1016.400
510.189 1000.600
509.579 1006.400
508.968 1007.600
508.358 1006.000
507.748 984.200
507.138 980.000
506.528 1005.200
505.918 1003.800
505.307 1012.800
504.696 991.800
504.086 1024.800
503.476 1001.600
502.864 993.000
502.254 990.200
501.644 1006.600
501.032 993.800
500.421 1008.000
499.811 997.400
499.200 997.000
498.589 985.400
497.978 1010.200
497.367 990.800
496.755 987.400
496.145 988.800
495.533 1011.600
494.922 999.400
494.311 992.800
493.699 986.400
493.088 976.400
492.476 983.000
491.865 991.600
491.253 1010.600
490.641 986.000
490.029 988.000
489.418 1001.800
488.806 993.000
488.194 997.600
487.582 990.400
486.971 986.600
486.358 990.400
485.747 999.600
485.134 994.400
484.523 986.200
483.910 1001.800
483.298 999.200
482.686 985.800
482.073 978.600
481.461 1009.400
480.848 977.000
480.235 980.800
479.624 989.200
479.011 979.400
478.398 990.600
477.786 995.600
477.173 1006.200
476.560 990.200
475.948 991.000
475.334 993.600
474.721 1005.200
474.108 983.200
473.496 991.400
472.882 985.000
472.269 974.600
471.655 975.400
471.043 981.000
470.430 976.400
469.816 967.000
469.202 962.200
468.589 959.600
467.975 970.000
467.363 965.400
466.749 980.400
466.135 984.800
465.521 974.800
464.907 965.000
464.293 961.400
463.680 967.600
463.066 971.800
462.452 974.800
461.838 964.200
461.223 956.800
460.609 943.600
459.996 968.000
459.382 944.200
458.768 953.000
458.154 958.800
457.538 955.000
456.924 960.200
456.309 964.400
455.695 940.200
455.080 948.400
454.466 973.400
453.851 941.200
453.237 958.200
452.622 949.000
452.008 961.400
451.393 943.400
450.778 963.600
450.162 958.200
449.547 942.600
448.932 945.600
448.318 940.400
447.703 943.400
447.088 957.800
446.472 941.200
445.856 941.400
445.241 943.800
444.626 946.600
444.010 942.600
443.395 942.800
442.780 939.600
442.164 946.400
441.548 959.800
440.932 932.800
440.317 966.200
439.700 940.000
439.085 941.200
438.469 950.800
437.853 946.200
437.237 945.800
436.622 957.600
436.005 938.800
435.389 947.200
434.773 944.600
434.156 942.400
433.541 949.000
432.923 956.000
432.308 947.200
431.690 941.600
431.075 945.200
430.457 951.800
429.841 958.600
429.225 938.800
428.608 950.200
427.992 955.200
427.374 943.800
426.757 950.400
426.141 952.200
425.523 936.200
424.907 928.400
424.289 949.000
423.673 945.800
423.055 927.800
422.438 943.400
421.821 972.400
421.203 953.200
420.587 955.000
419.969 946.000
419.351 951.200
418.734 956.600
418.116 954.200
417.498 962.000
416.882 954.400
416.263 957.600
415.645 954.200
415.027 954.200
414.410 943.000
413.792 943.000
413.174 931.000
412.555 946.000
411.938 948.400
411.320 948.600
410.702 934.600
410.083 953.200
409.466 951.200
408.847 950.600
408.229 950.600
407.610 954.600
406.991 937.200
406.373 949.200
405.754 932.600
405.136 954.800
404.518 943.000
403.899 943.400
403.280 933.800
402.661 940.600
402.042 952.600
401.423 949.200
400.804 951.200
400.185 964.600
399.566 943.600
398.947 944.200
398.328 927.200
397.708 936.000
397.089 955.400
396.470 934.200
395.850 942.800
395.231 940.600
394.612 931.600
393.992 920.600
393.373 928.600
392.753 934.200
392.134 924.200
391.514 933.800
390.893 932.400
390.273 922.000
389.654 928.000
389.034 937.400
388.414 946.600
387.794 927.000
387.174 931.600
386.553 920.200
385.933 917.200
385.313 926.000
384.693 933.600
384.072 942.800
383.452 954.600
382.832 945.200
382.212 960.400
381.590 965.200
380.970 981.600
380.350 1000.400
379.729 1001.000
379.108 1043.800
378.487 1026.400
377.867 1039.800
377.245 1046.600
376.625 1061.200
376.004 1066.600
375.382 1067.000
374.762 1080.600
374.141 1083.000
373.519 1087.800
372.898 1080.400
372.276 1105.800
371.655 1106.600
371.033 1107.000
370.412 1112.600
369.791 1107.400
369.169 1122.000
368.548 1115.000
367.926 1107.800
367.305 1120.000
366.682 1131.800
366.061 1116.800
365.439 1143.400
364.818 1119.000
364.195 1129.200
363.573 1129.000
362.951 1141.800
362.329 1126.400
361.707 1142.400
361.084 1145.200
360.462 1141.000
359.840 1171.000
359.217 1157.200
358.596 1166.000
357.973 1177.200
357.350 1182.600
356.728 1203.000
356.105 1209.000
355.482 1223.000
354.860 1203.400
354.237 1243.600
353.614 1255.200
352.991 1239.400
352.369 1295.600
351.745 1294.800
351.122 1330.400
350.499 1347.000
349.876 1367.200
349.253 1401.200
348.629 1458.600
348.006 1475.800
347.382 1498.400
346.760 1556.400
346.136 1644.200
345.513 1696.200
344.889 1795.400
344.265 1967.000
343.641 2213.600
343.018 2519.400
342.395 3010.600
341.771 3596.000
341.147 4125.000
340.523 4607.800
339.899 4787.600
339.275 4634.600
338.651 4276.400
338.027 3828.200
337.403 3360.400
336.778 2981.400
336.154 2665.000
335.530 2437.000
334.905 2248.400
334.281 2083.200
333.657 1944.600
333.032 1807.200
332.408 1705.000
331.783 1594.400
331.159 1515.800
330.534 1458.800
329.909 1388.600
329.285 1335.200
328.659 1291.800
328.034 1261.400
327.409 1218.600
326.784 1180.200
326.159 1148.600
325.535 1143.400
324.910 1100.400
324.283 1100.000
323.658 1081.200
323.033 1078.000
322.408 1060.400
321.783 1066.600
321.157 1019.800
320.531 1040.600
319.906 1024.600
319.281 1036.000
318.654 1028.400
318.029 1030.800
317.403 1032.000
316.777 1038.000
316.151 1045.400
315.526 1057.600
314.899 1048.800
314.273 1035.800
313.648 1033.000
313.021 1045.200
312.395 1032.200
311.769 1029.400
311.142 1038.600
310.516 1013.800
309.889 1036.000
309.263 1017.600
308.637 1023.800
308.010 1019.600
307.384 1021.200
306.757 1019.400
306.131 1015.400
305.503 1015.800
304.877 1006.400
304.249 1019.400
303.623 1020.200
302.996 1017.600
302.369 1026.000
301.742 1024.800
301.115 1048.800
300.487 1052.000
299.861 1042.400
299.233 1064.400
298.605 1059.800
297.979 1071.000
297.351 1079.600
296.724 1109.200
296.096 1111.800
295.468 1145.800
294.841 1180.200
294.213 1205.200
293.585 1246.400
292.958 1278.800
292.330 1331.200
291.702 1375.000
291.075 1429.600
290.446 1450.400
289.818 1497.800
289.189 1475.800
288.562 1435.000
287.934 1415.000
287.305 1367.400
286.677 1304.800
286.049 1279.000
285.421 1198.000
284.792 1189.800
284.163 1151.400
283.534 1109.200
282.907 1074.200
282.278 1061.400
281.649 1065.200
281.020 1059.600
280.391 1043.600
279.762 1030.400
279.133 1008.400
278.505 1013.800
277.876 995.600
277.247 995.600
276.618 983.400
275.989 984.400
275.359 999.000
274.730 989.800
274.101 971.200
273.471 974.600
272.842 950.600
272.212 945.200
271.583 953.600
270.953 927.200
270.324 925.800
269.694 909.200
269.065 935.000
268.435 920.800
267.805 915.400
267.175 904.600
266.545 928.400
265.916 891.400
265.284 921.400
264.655 923.600
264.025 892.200
263.395 892.400
262.764 895.400
262.134 901.000
261.504 898.400
260.873 900.600
260.243 893.000
259.612 895.600
258.982 880.200
258.352 882.200
257.720 871.600
257.090 870.400
256.459 878.400
255.829 870.000
255.197 854.400
254.566 860.000
253.936 863.600
253.305 858.000
252.673 853.200
252.042 855.800
251.412 867.600
250.780 855.000
250.149 829.200
249.518 824.600
248.886 800.600
248.255 809.000
247.624 800.000
246.992 810.800
246.360 808.600
245.728 806.600
245.097 787.800
244.466 785.800
243.833 766.000
243.202 784.600
242.569 782.200
241.938 780.800
241.305 779.800
240.674 759.800
240.041 761.400
239.410 772.000
238.777 776.400
238.145 745.800
237.512 759.200
236.881 763.000
236.248 752.000
235.616 732.600
234.983 736.400
234.351 749.800
233.718 735.800
233.085 733.400
232.453 735.200
231.820 720.600
231.186 734.800
230.554 742.600
229.921 713.400
229.289 740.400
228.655 728.400
228.022 756.000
227.390 729.400
226.756 721.200
226.123 739.200
225.489 689.000
224.856 714.000
224.223 697.400
223.589 696.800
222.955 697.800
222.323 695.000
221.689 705.800
221.055 705.400
220.421 700.800
219.788 692.000
219.154 700.800
218.520 697.600
217.886 688.400
217.252 698.000
216.618 687.800
215.985 681.200
215.350 682.600
214.716 684.000
214.082 681.800
213.447 676.600
212.813 668.000
212.178 670.400
