834.788 954.400
834.204 963.600
833.621 959.600
833.037 947.600
832.453 944.200
831.870 943.200
831.286 949.800
830.702 952.400
830.118 954.600
829.535 979.600
828.950 978.200
828.367 954.200
827.782 944.600
827.198 943.600
826.615 944.400
826.030 930.000
825.446 961.200
824.861 960.800
824.277 960.400
823.692 930.400
823.109 947.400
822.523 955.200
821.940 941.400
821.354 965.800
820.770 968.000
820.185 938.800
819.601 935.600
819.016 951.400
818.431 935.400
817.846 929.400
817.261 951.400
816.677 938.000
816.091 943.000
815.506 916.600
814.922 974.400
814.336 951.800
813.750 936.400
813.166 943.600
812.580 925.200
811.995 940.200
811.410 947.800
810.824 907.000
810.239 922.000
809.653 923.600
809.068 945.600
808.482 921.400
807.896 932.400
807.310 931.200
806.724 958.600
806.139 938.400
805.553 926.000
804.967 943.200
804.381 946.400
803.795 916.000
803.209 930.600
802.624 919.800
802.037 929.600
801.451 920.600
800.865 929.000
800.278 930.600
799.692 897.400
799.105 927.600
798.519 930.800
797.932 918.600
797.346 902.000
796.759 922.400
796.173 923.600
795.586 922.400
794.999 935.400
794.412 902.000
793.826 932.200
793.239 938.000
792.652 931.600
792.065 910.400
791.478 916.400
790.891 904.600
790.303 918.800
789.716 920.400
789.129 931.400
788.542 943.200
787.955 918.000
787.368 918.000
786.781 947.200
786.192 905.400
785.605 937.800
785.018 938.600
784.430 915.200
783.842 901.400
783.254 916.800
782.667 915.800
782.079 914.800
781.491 929.200
780.903 914.400
780.316 941.000
779.727 905.800
779.139 942.000
778.551 923.400
777.963 927.000
777.375 909.000
776.787 919.000
776.198 920.400
775.610 915.600
775.022 909.600
774.433 917.000
773.845 908.600
773.256 915.600
772.668 915.800
772.079 930.800
771.491 913.600
770.901 916.200
770.313 893.800
769.724 911.200
769.136 910.400
768.546 901.600
767.958 920.400
767.368 911.800
766.780 904.200
766.190 917.400
765.602 921.600
765.012 926.200
764.422 898.200
763.834 910.000
763.244 897.200
762.655 910.800
762.066 901.000
761.476 916.600
760.887 896.600
760.297 903.200
759.707 884.800
759.117 913.200
758.528 917.600
757.938 901.800
757.348 909.400
756.759 904.600
756.169 917.400
755.578 907.200
754.988 888.400
754.398 920.000
753.809 902.200
753.218 898.400
752.628 910.200
752.037 893.400
751.447 907.800
750.858 901.600
750.267 924.600
749.676 920.600
749.086 906.800
748.495 907.200
747.904 892.200
747.314 896.400
746.723 918.400
746.132 904.000
745.541 903.800
744.950 920.600
744.360 903.200
743.769 896.600
743.178 896.200
742.587 907.000
741.996 908.000
741.404 906.800
740.813 899.000
740.222 900.200
739.631 909.800
739.040 895.400
738.449 902.400
737.857 902.600
737.266 912.800
736.674 898.000
736.083 913.400
735.490 873.800
734.899 902.000
734.307 904.800
733.716 867.400
733.124 884.000
732.533 865.400
731.940 892.000
731.348 897.200
730.756 901.800
730.165 891.600
729.572 895.200
728.980 893.800
728.388 908.600
727.796 894.200
727.203 891.200
726.611 873.400
726.019 890.400
725.426 907.400
724.834 889.000
724.242 881.800
723.648 883.800
723.056 875.200
722.464 899.200
721.870 882.000
721.278 903.000
720.685 895.200
720.092 899.000
719.500 887.000
718.906 869.400
718.314 883.000
717.720 899.800
717.127 886.800
716.534 881.400
715.941 870.400
715.347 875.000
714.755 883.800
714.161 877.800
713.568 876.000
712.974 879.200
712.380 871.200
711.787 878.400
711.193 865.600
710.600 873.800
710.006 880.000
709.412 881.000
708.819 878.600
708.224 888.600
707.631 870.400
707.037 861.600
706.443 884.600
705.848 877.400
705.255 883.600
704.660 886.600
704.066 879.800
703.472 860.200
702.878 879.800
702.283 863.000
701.689 861.400
701.095 883.600
700.500 880.400
699.906 856.600
699.311 857.800
698.716 869.200
698.122 859.200
697.527 868.000
696.932 845.200
696.337 861.800
695.742 860.400
695.147 860.600
694.552 859.400
693.957 865.400
693.363 854.200
692.768 873.800
692.173 887.400
691.578 865.000
690.982 866.000
690.387 850.400
689.791 862.000
689.196 862.200
688.601 854.400
688.005 862.000
687.410 866.400
686.814 875.000
686.218 847.800
685.623 868.000
685.027 863.200
684.431 878.800
683.835 879.200
683.239 852.400
682.643 854.600
682.047 844.400
681.451 850.400
680.855 879.600
680.259 858.200
679.663 836.600
679.066 856.600
678.470 852.600
677.874 861.400
677.278 848.600
676.682 868.200
676.084 879.400
675.488 845.000
674.892 876.000
674.296 858.000
673.698 850.600
673.102 858.200
672.505 860.000
671.908 855.000
671.311 808.800
670.715 848.400
670.117 864.600
669.520 843.000
668.924 869.800
668.326 863.000
667.729 868.600
667.132 858.800
666.534 871.800
665.937 837.000
665.339 842.600
664.743 850.600
664.146 874.400
663.548 850.800
662.950 861.000
662.352 839.200
661.755 831.000
661.157 836.600
660.560 849.400
659.961 838.400
659.364 833.800
658.766 845.200
658.168 855.800
657.570 818.400
656.971 845.000
656.374 843.000
655.775 841.000
655.178 829.200
654.579 827.000
653.980 827.600
653.383 851.200
652.784 829.800
652.185 847.000
651.588 835.400
650.989 817.400
650.390 811.800
649.792 848.600
649.193 841.000
648.594 837.000
647.996 842.600
647.397 814.400
646.798 851.000
646.199 830.200
645.599 814.800
645.001 815.200
644.402 800.800
643.803 833.600
643.203 826.600
642.604 835.200
642.006 838.000
641.406 827.400
640.806 822.400
640.207 827.600
639.607 815.800
639.008 811.000
638.408 827.400
637.808 825.600
637.210 820.800
636.610 821.000
636.010 821.600
635.410 826.400
634.810 817.800
634.211 819.200
633.611 809.200
633.011 825.000
632.411 826.800
631.810 818.400
631.210 814.000
630.610 784.200
630.010 800.600
629.410 801.600
628.808 807.400
628.208 794.400
627.608 778.400
627.007 797.200
626.407 827.600
625.807 810.200
625.206 794.200
624.606 821.200
624.004 811.200
623.403 806.400
622.803 790.000
622.202 814.400
621.601 808.600
620.999 818.200
620.399 813.400
619.798 820.000
619.197 806.800
618.596 833.800
617.994 810.200
617.393 809.200
616.792 809.800
616.190 797.600
615.589 818.600
614.988 811.000
614.385 806.800
613.784 782.200
613.183 798.000
612.581 815.600
611.979 819.800
611.378 806.400
610.776 793.600
610.174 797.800
609.572 819.000
608.970 798.400
608.369 806.400
607.766 828.200
607.164 806.200
606.561 809.000
605.960 792.800
605.357 799.800
604.755 801.400
604.152 809.400
603.551 814.000
602.948 821.200
602.346 812.200
601.743 801.800
601.139 815.200
600.537 785.400
599.934 793.600
599.332 810.200
598.729 780.600
598.126 795.800
597.524 805.600
596.920 794.200
596.318 784.600
595.715 803.000
595.111 817.600
594.509 811.600
593.905 798.400
593.301 800.000
592.698 820.000
592.095 812.400
591.492 797.600
590.888 802.200
590.285 833.600
589.681 797.800
589.078 790.200
588.474 806.200
587.870 806.000
587.267 794.200
586.663 777.200
586.059 779.600
585.455 794.600
584.851 794.600
584.247 787.000
583.644 780.400
583.039 798.600
582.435 776.200
581.831 789.800
581.227 799.600
580.622 792.000
580.018 781.400
579.413 775.200
578.809 781.600
578.204 804.000
577.600 793.600
576.995 791.800
576.390 784.400
575.786 810.000
575.181 795.000
574.576 788.400
573.972 799.600
573.367 819.000
572.762 788.000
572.157 804.600
571.552 759.200
570.947 801.200
570.342 788.400
569.737 783.400
569.131 797.800
568.526 780.400
567.921 793.800
567.315 796.600
566.710 782.000
566.105 791.800
565.498 777.600
564.893 793.600
564.288 801.600
563.682 812.600
563.077 788.600
562.470 773.400
561.865 788.400
561.259 766.800
560.654 792.000
560.047 793.400
559.441 787.400
558.835 794.200
558.228 786.800
557.623 777.800
557.017 769.600
556.410 772.800
555.804 784.600
555.198 803.600
554.591 794.800
553.985 791.000
553.379 804.600
552.772 776.600
552.165 806.400
551.558 787.200
550.952 807.000
550.344 808.800
549.738 805.400
549.131 781.600
548.524 807.200
547.918 810.200
547.310 797.400
546.704 803.600
546.096 803.000
545.489 795.800
544.882 781.800
544.274 792.000
543.668 787.800
543.060 792.000
542.453 803.800
541.845 795.400
541.237 784.600
540.630 796.400
540.022 797.400
539.415 799.600
538.807 800.600
538.199 794.200
537.592 796.600
536.984 800.200
536.376 792.600
535.768 806.600
535.160 795.200
534.552 792.600
533.943 783.800
533.336 787.600
532.728 794.600
532.119 794.200
531.510 805.400
530.903 784.800
530.294 787.000
529.686 789.200
529.077 771.400
528.468 766.600
527.859 802.600
527.252 796.000
526.643 796.000
526.034 786.800
525.425 790.800
524.816 785.800
524.207 769.400
523.598 782.800
522.989 781.200
522.380 780.200
521.772 789.200
521.163 799.800
520.553 775.800
519.944 790.800
519.335 786.200
518.725 787.600
518.116 807.000
517.507 785.200
516.897 806.200
516.288 794.000
515.678 791.200
515.069 782.600
514.458 797.200
513.848 790.600
513.238 782.800
512.629 781.900
512.019 781.000
511.409 775.800
510.799 781.200
510.189 795.400
509.579 797.600
508.968 795.600
508.358 794.200
507.748 801.600
507.138 783.000
506.528 798.400
505.918 801.200
505.307 808.000
504.696 804.400
504.086 811.800
503.476 796.000
502.864 819.200
502.254 820.400
501.644 809.800
501.032 825.600
500.421 812.200
499.811 803.800
499.200 836.200
498.589 834.000
497.978 846.800
497.367 836.200
496.755 836.400
496.145 818.600
495.533 841.400
494.922 857.000
494.311 860.600
493.699 859.400
493.088 868.000
492.476 864.400
491.865 883.600
491.253 893.400
490.641 924.200
490.029 927.600
489.418 936.000
488.806 959.000
488.194 964.800
487.582 996.800
486.971 1010.200
486.358 1022.200
485.747 1076.600
485.134 1090.000
484.523 1167.400
483.910 1176.600
483.298 1230.200
482.686 1292.200
482.073 1373.600
481.461 1450.800
480.848 1528.400
480.235 1646.600
479.624 1763.400
479.011 1910.000
478.398 2071.400
477.786 2282.400
477.173 2417.000
476.560 2628.600
475.948 2763.000
475.334 2876.600
474.721 2928.600
474.108 2998.400
473.496 2929.400
472.882 2869.800
472.269 2754.200
471.655 2608.000
471.043 2411.200
470.430 2284.200
469.816 2117.000
469.202 1940.600
468.589 1871.600
467.975 1729.800
467.363 1662.000
466.749 1559.400
466.135 1493.800
465.521 1395.400
464.907 1363.600
464.293 1301.000
463.680 1257.000
463.066 1226.800
462.452 1199.200
461.838 1163.800
461.223 1143.000
460.609 1091.400
459.996 1091.400
459.382 1040.600
458.768 1022.800
458.154 1032.400
457.538 993.000
456.924 981.000
456.309 978.000
455.695 945.600
455.080 935.600
454.466 938.000
453.851 904.800
453.237 898.000
452.622 861.600
452.008 862.600
451.393 851.400
450.778 853.800
450.162 856.000
449.547 823.200
448.932 825.000
448.318 806.800
447.703 792.000
447.088 793.600
446.472 771.000
445.856 779.400
445.241 785.400
444.626 796.000
444.010 779.600
443.395 759.000
442.780 754.000
442.164 746.400
441.548 760.000
440.932 751.200
440.317 745.400
439.700 734.600
439.085 749.600
438.469 736.000
437.853 746.200
437.237 744.800
436.622 727.200
436.005 716.000
435.389 721.200
434.773 706.000
434.156 712.800
433.541 734.800
432.923 722.400
432.308 723.400
431.690 708.200
431.075 716.800
430.457 727.800
429.841 710.000
429.225 709.600
428.608 719.000
427.992 710.400
427.374 713.200
426.757 699.400
426.141 713.800
425.523 712.000
424.907 707.200
424.289 700.200
423.673 695.800
423.055 703.000
422.438 689.600
421.821 701.200
421.203 704.200
420.587 709.400
419.969 704.000
419.351 699.400
418.734 690.800
418.116 685.000
417.498 702.400
416.882 698.600
416.263 708.800
415.645 711.400
415.027 709.000
414.410 715.400
413.792 699.400
413.174 705.200
412.555 709.800
411.938 705.600
411.320 711.400
410.702 696.200
410.083 698.200
409.466 714.200
408.847 729.400
408.229 695.000
407.610 694.200
406.991 707.000
406.373 703.200
405.754 703.200
405.136 703.600
404.518 707.800
403.899 689.200
403.280 698.600
402.661 706.200
402.042 714.600
401.423 704.400
400.804 712.200
400.185 706.600
399.566 712.200
398.947 707.800
398.328 711.400
397.708 697.800
397.089 703.400
396.470 688.600
395.850 692.800
395.231 704.800
394.612 703.000
393.992 678.400
393.373 698.400
392.753 698.200
392.134 717.800
391.514 686.200
390.893 690.000
390.273 701.800
389.654 701.200
389.034 702.000
388.414 698.000
387.794 716.600
387.174 706.600
386.553 687.200
385.933 692.800
385.313 697.000
384.693 691.400
384.072 703.000
383.452 695.600
382.832 710.600
382.212 713.200
381.590 691.200
380.970 680.000
380.350 711.600
379.729 686.200
379.108 712.800
378.487 705.600
377.867 717.800
377.245 714.400
376.625 708.600
376.004 714.000
375.382 703.000
374.762 708.600
374.141 698.800
373.519 715.800
372.898 709.800
372.276 711.000
371.655 706.400
371.033 711.400
370.412 706.000
369.791 699.600
369.169 698.800
368.548 718.200
367.926 701.400
367.305 720.600
366.682 714.200
366.061 701.000
365.439 723.800
364.818 696.000
364.195 729.800
363.573 704.000
362.951 715.200
362.329 712.600
361.707 711.400
361.084 727.200
360.462 718.200
359.840 748.600
359.217 731.000
358.596 747.000
357.973 734.200
357.350 739.000
356.728 740.000
356.105 743.000
355.482 732.200
354.860 745.800
354.237 745.000
353.614 745.400
352.991 747.800
352.369 730.200
351.745 741.800
351.122 766.000
350.499 757.800
349.876 777.400
349.253 770.200
348.629 771.800
348.006 777.800
347.382 787.000
346.760 781.400
346.136 812.600
345.513 819.800
344.889 832.200
344.265 833.400
343.641 843.800
343.018 888.600
342.395 896.400
341.771 921.600
341.147 974.400
340.523 1004.000
339.899 1044.600
339.275 1076.200
338.651 1052.400
338.027 1081.600
337.403 1074.200
336.778 1081.000
336.154 1033.600
335.530 1023.600
334.905 991.000
334.281 972.400
333.657 949.400
333.032 915.800
332.408 894.400
331.783 844.800
331.159 859.600
330.534 839.400
329.909 816.600
329.285 807.600
328.659 779.200
328.034 765.600
327.409 776.000
326.784 761.600
326.159 753.400
325.535 757.200
324.910 740.000
324.283 722.000
323.658 744.200
323.033 736.200
322.408 709.000
321.783 700.600
321.157 729.000
320.531 687.800
319.906 692.800
319.281 692.000
318.654 686.600
318.029 693.600
317.403 679.000
316.777 689.600
316.151 692.800
315.526 696.000
314.899 684.800
314.273 691.000
313.648 679.200
313.021 683.200
312.395 682.400
311.769 694.000
311.142 675.600
310.516 675.800
309.889 678.200
309.263 670.000
308.637 670.200
308.010 686.600
307.384 669.000
306.757 684.400
306.131 683.400
305.503 685.800
304.877 664.200
304.249 676.000
303.623 676.000
302.996 669.000
302.369 649.000
301.742 676.600
301.115 668.800
300.487 677.000
299.861 673.400
299.233 664.200
298.605 684.400
297.979 671.800
297.351 668.600
296.724 675.000
296.096 666.600
295.468 685.800
294.841 670.800
294.213 688.200
293.585 669.800
292.958 683.200
292.330 697.600
291.702 687.800
291.075 689.400
290.446 699.600
289.818 704.200
289.189 699.400
288.562 681.400
287.934 696.400
287.305 697.400
286.677 710.200
286.049 697.000
285.421 690.600
284.792 693.400
284.163 694.200
283.534 688.400
282.907 678.600
282.278 664.200
281.649 692.000
281.020 694.400
280.391 691.000
279.762 704.400
279.133 700.000
278.505 679.000
277.876 702.000
277.247 698.800
276.618 694.200
275.989 706.600
275.359 703.600
274.730 696.200
274.101 707.000
273.471 701.600
272.842 716.800
272.212 721.800
271.583 733.400
270.953 743.000
270.324 739.000
269.694 734.800
269.065 735.400
268.435 751.200
267.805 736.400
267.175 748.400
266.545 758.000
265.916 764.000
265.284 757.600
264.655 746.600
264.025 758.400
263.395 742.600
262.764 743.600
262.134 731.800
261.504 739.800
260.873 736.800
260.243 725.800
259.612 694.800
258.982 718.400
258.352 715.000
257.720 700.400
257.090 697.600
256.459 671.400
255.829 694.200
255.197 676.400
254.566 674.400
253.936 671.800
253.305 664.200
252.673 644.000
252.042 665.800
251.412 658.600
250.780 631.000
250.149 642.800
249.518 636.000
248.886 641.600
248.255 641.000
247.624 631.400
246.992 615.800
246.360 609.200
245.728 595.200
245.097 610.800
244.466 615.800
243.833 577.800
243.202 608.800
242.569 594.200
241.938 591.200
241.305 579.000
240.674 601.600
240.041 583.600
239.410 573.200
238.777 580.200
238.145 561.000
237.512 581.200
236.881 556.800
236.248 567.000
235.616 576.200
234.983 568.200
234.351 563.600
233.718 560.400
233.085 567.400
232.453 571.400
231.820 560.400
231.186 550.000
230.554 553.200
229.921 581.400
229.289 550.800
228.655 545.400
228.022 550.600
227.390 553.200
226.756 547.800
226.123 548.200
225.489 555.400
224.856 532.200
224.223 547.000
223.589 542.200
222.955 548.000
222.323 544.400
221.689 535.600
221.055 530.200
220.421 538.400
219.788 530.400
219.154 532.200
218.520 538.400
217.886 546.600
217.252 529.000
216.618 513.000
215.985 533.600
215.350 523.000
214.716 520.800
214.082 515.200
213.447 514.400
212.813 528.400
212.178 521.000
