834.788 209.200
834.204 202.200
833.621 199.400
833.037 194.200
832.453 198.800
831.870 201.800
831.286 201.200
830.702 198.000
830.118 201.800
829.535 200.000
828.950 210.000
828.367 201.800
827.782 202.200
827.198 199.600
826.615 202.400
826.030 198.800
825.446 196.400
824.861 198.500
824.277 199.000
823.692 200.400
823.109 195.600
822.523 206.800
821.940 202.000
821.354 191.000
820.770 203.200
820.185 207.600
819.601 206.600
819.016 205.400
818.431 192.400
817.846 201.800
817.261 204.000
816.677 199.800
816.091 199.800
815.506 189.400
814.922 203.800
814.336 205.800
813.750 202.200
813.166 198.600
812.580 208.800
811.995 195.400
811.410 199.600
810.824 201.000
810.239 200.000
809.653 197.800
809.068 199.600
808.482 197.200
807.896 203.400
807.310 197.400
806.724 198.200
806.139 206.400
805.553 193.600
804.967 190.600
804.381 200.800
803.795 195.600
803.209 204.400
802.624 196.400
802.037 203.200
801.451 185.200
800.865 199.200
800.278 199.600
799.692 195.800
799.105 204.200
798.519 205.000
797.932 199.400
797.346 199.200
796.759 198.400
796.173 201.400
795.586 197.200
794.999 193.600
794.412 189.800
793.826 199.000
793.239 195.600
792.652 198.600
792.065 207.800
791.478 198.800
790.891 202.600
790.303 200.200
789.716 201.400
789.129 203.600
788.542 201.200
787.955 203.600
787.368 206.600
786.781 196.400
786.192 201.200
785.605 196.400
785.018 198.800
784.430 191.000
783.842 194.600
783.254 214.600
782.667 197.000
782.079 205.400
781.491 205.200
780.903 203.600
780.316 207.800
779.727 205.000
779.139 207.600
778.551 206.600
777.963 206.600
777.375 217.400
776.787 207.000
776.198 212.200
775.610 205.800
775.022 203.800
774.433 216.800
773.845 207.600
773.256 209.200
772.668 213.400
772.079 206.200
771.491 208.400
770.901 206.200
770.313 213.000
769.724 215.200
769.136 217.600
768.546 201.400
767.958 211.200
767.368 211.400
766.780 213.400
766.190 208.800
765.602 200.200
765.012 206.800
764.422 216.200
763.834 224.800
763.244 224.400
762.655 209.000
762.066 216.600
761.476 212.000
760.887 206.200
760.297 219.400
759.707 211.600
759.117 215.600
758.528 213.400
757.938 213.400
757.348 215.400
756.759 223.400
756.169 223.600
755.578 224.600
754.988 219.600
754.398 224.600
753.809 225.800
753.218 221.800
752.628 218.200
752.037 223.800
751.447 223.800
750.858 219.000
750.267 216.800
749.676 221.000
749.086 223.000
748.495 221.000
747.904 224.600
747.314 220.000
746.723 218.400
746.132 220.600
745.541 233.400
744.950 221.400
744.360 230.200
743.769 223.000
743.178 226.200
742.587 228.200
741.996 223.800
741.404 219.400
740.813 219.600
740.222 229.800
739.631 236.800
739.040 222.600
738.449 226.000
737.857 217.200
737.266 230.000
736.674 217.800
736.083 230.800
735.490 219.200
734.899 229.600
734.307 232.200
733.716 224.200
733.124 232.200
732.533 231.400
731.940 224.800
731.348 226.000
730.756 234.400
730.165 230.800
729.572 233.000
728.980 229.800
728.388 227.000
727.796 230.400
727.203 220.200
726.611 232.800
726.019 216.200
725.426 231.800
724.834 227.000
724.242 236.200
723.648 237.000
723.056 243.200
722.464 240.600
721.870 234.600
721.278 244.400
720.685 230.800
720.092 230.400
719.500 248.200
718.906 248.600
718.314 250.600
717.720 249.800
717.127 248.800
716.534 246.200
715.941 251.000
715.347 260.600
714.755 253.000
714.161 265.800
713.568 271.200
712.974 255.000
712.380 258.400
711.787 267.400
711.193 265.000
710.600 272.400
710.006 278.200
709.412 276.200
708.819 286.800
708.224 289.000
707.631 299.800
707.037 297.200
706.443 299.800
705.848 304.000
705.255 313.600
704.660 305.800
704.066 339.800
703.472 326.200
702.878 317.200
702.283 333.400
701.689 321.200
701.095 334.400
700.500 332.400
699.906 320.400
699.311 330.200
698.716 321.800
698.122 326.600
697.527 334.600
696.932 342.200
696.337 333.600
695.742 335.800
695.147 341.800
694.552 350.200
693.957 353.200
693.363 343.600
692.768 340.600
692.173 344.200
691.578 346.800
690.982 345.000
690.387 346.200
689.791 360.400
689.196 369.600
688.601 366.000
688.005 341.600
687.410 368.600
686.814 369.200
686.218 374.800
685.623 392.600
685.027 384.400
684.431 395.800
683.835 413.000
683.239 406.800
682.643 408.800
682.047 427.200
681.451 437.000
680.855 443.000
680.259 449.600
679.663 456.000
679.066 454.800
678.470 464.600
677.874 473.400
677.278 476.000
676.682 482.600
676.084 503.600
675.488 510.800
674.892 511.600
674.296 501.200
673.698 504.600
673.102 518.000
672.505 503.000
671.908 500.600
671.311 479.400
670.715 494.800
670.117 485.800
669.520 480.600
668.924 467.600
668.326 457.600
667.729 453.800
667.132 454.600
666.534 437.600
665.937 430.200
665.339 429.600
664.743 421.200
664.146 395.200
663.548 403.200
662.950 395.600
662.352 382.200
661.755 384.600
661.157 376.800
660.560 365.000
659.961 357.000
659.364 363.200
658.766 358.000
658.168 362.400
657.570 338.000
656.971 343.000
656.374 356.600
655.775 349.600
655.178 339.600
654.579 337.200
653.980 353.000
653.383 339.600
652.784 340.600
652.185 344.000
651.588 331.000
650.989 333.000
650.390 324.000
649.792 344.800
649.193 323.200
648.594 342.400
647.996 330.200
647.397 330.200
646.798 315.800
646.199 319.200
645.599 326.000
645.001 328.600
644.402 328.800
643.803 321.000
643.203 321.400
642.604 325.400
642.006 303.000
641.406 318.800
640.806 324.400
640.207 314.400
639.607 313.000
639.008 309.400
638.408 314.000
637.808 305.600
637.210 307.200
636.610 300.800
636.010 294.600
635.410 294.200
634.810 301.000
634.211 284.400
633.611 292.000
633.011 299.800
632.411 292.200
631.810 297.800
631.210 294.200
630.610 290.000
630.010 294.200
629.410 296.200
628.808 297.000
628.208 290.800
627.608 244.800
627.007 289.000
626.407 286.800
625.807 292.600
625.206 288.000
624.606 291.400
624.004 285.800
623.403 277.600
622.803 285.000
622.202 291.400
621.601 275.000
620.999 283.000
620.399 275.000
619.798 276.200
619.197 281.200
618.596 280.200
617.994 277.200
617.393 281.600
616.792 270.600
616.190 274.000
615.589 270.600
614.988 275.400
614.385 273.800
613.784 264.200
613.183 269.800
612.581 268.000
611.979 269.400
611.378 279.200
610.776 273.600
610.174 275.600
609.572 273.600
608.970 264.800
608.369 256.600
607.766 265.600
607.164 263.200
606.561 272.000
605.960 271.400
605.357 271.800
604.755 282.200
604.152 255.000
603.551 263.000
602.948 266.400
602.346 262.400
601.743 263.800
601.139 268.000
600.537 258.000
599.934 264.000
599.332 257.200
598.729 259.600
598.126 247.200
597.524 255.800
596.920 252.600
596.318 256.800
595.715 242.600
595.111 255.800
594.509 248.200
593.905 247.600
593.301 251.400
592.698 248.200
592.095 257.600
591.492 235.400
590.888 247.000
590.285 243.600
589.681 230.600
589.078 235.400
588.474 240.000
587.870 248.000
587.267 239.000
586.663 228.200
586.059 233.800
585.455 221.200
584.851 226.000
584.247 239.800
583.644 229.200
583.039 234.600
582.435 236.400
581.831 231.600
581.227 228.600
580.622 224.800
580.018 230.800
579.413 220.800
578.809 226.400
578.204 207.400
577.600 227.000
576.995 218.800
576.390 227.600
575.786 227.000
575.181 220.800
574.576 215.400
573.972 217.200
573.367 215.200
572.762 215.400
572.157 216.000
571.552 212.400
570.947 227.600
570.342 218.000
569.737 216.800
569.131 210.000
568.526 212.000
567.921 212.200
567.315 209.600
566.710 215.400
566.105 216.200
565.498 217.800
564.893 218.800
564.288 204.200
563.682 208.600
563.077 199.400
562.470 204.800
561.865 194.200
561.259 203.600
560.654 202.400
560.047 210.000
559.441 213.400
558.835 202.400
558.228 205.600
557.623 207.200
557.017 199.400
556.410 208.200
555.804 201.800
555.198 211.600
554.591 202.800
553.985 202.800
553.379 212.400
552.772 202.200
552.165 202.800
551.558 201.400
550.952 202.200
550.344 195.200
549.738 207.400
549.131 200.400
548.524 206.200
547.918 214.600
547.310 195.800
546.704 203.400
546.096 200.600
545.489 195.600
544.882 200.000
544.274 195.200
543.668 210.800
543.060 196.800
542.453 201.200
541.845 207.600
541.237 187.400
540.630 204.200
540.022 208.800
539.415 202.600
538.807 196.000
538.199 199.200
537.592 197.800
536.984 205.600
536.376 209.000
535.768 202.600
535.160 195.000
534.552 197.800
533.943 206.200
533.336 208.600
532.728 196.400
532.119 209.000
531.510 206.400
530.903 204.800
530.294 200.800
529.686 204.200
529.077 197.400
528.468 207.200
527.859 213.800
527.252 199.800
526.643 211.800
526.034 204.800
525.425 198.800
524.816 202.600
524.207 202.200
523.598 211.600
522.989 204.800
522.380 202.200
521.772 205.000
521.163 206.400
520.553 205.200
519.944 207.400
519.335 207.200
518.725 201.600
518.116 214.200
517.507 210.000
516.897 206.800
516.288 210.400
515.678 208.800
515.069 211.600
514.458 217.000
513.848 202.400
513.238 206.600
512.629 208.900
512.019 208.400
511.409 203.800
510.799 208.800
510.189 222.200
509.579 218.800
508.968 207.400
508.358 205.200
507.748 210.800
507.138 206.200
506.528 209.200
505.918 207.400
505.307 216.400
504.696 222.000
504.086 210.600
503.476 217.800
502.864 211.800
502.254 214.200
501.644 206.200
501.032 219.000
500.421 210.000
499.811 219.400
499.200 219.000
498.589 205.000
497.978 214.600
497.367 214.000
496.755 217.600
496.145 212.400
495.533 218.400
494.922 215.800
494.311 214.200
493.699 213.800
493.088 210.200
492.476 218.400
491.865 221.400
491.253 215.400
490.641 215.800
490.029 227.200
489.418 216.000
488.806 226.800
488.194 218.200
487.582 220.400
486.971 224.600
486.358 225.000
485.747 224.800
485.134 220.400
484.523 230.800
483.910 210.800
483.298 224.800
482.686 216.600
482.073 229.600
481.461 228.000
480.848 224.000
480.235 221.200
479.624 221.600
479.011 223.600
478.398 225.200
477.786 230.200
477.173 228.200
476.560 229.200
475.948 215.600
475.334 217.200
474.721 229.200
474.108 231.400
473.496 216.600
472.882 216.000
472.269 214.600
471.655 215.000
471.043 221.400
470.430 215.600
469.816 218.800
469.202 209.200
468.589 205.600
467.975 219.000
467.363 211.600
466.749 212.600
466.135 214.800
465.521 207.400
464.907 206.400
464.293 206.800
463.680 204.200
463.066 209.400
462.452 196.400
461.838 207.400
461.223 211.000
460.609 214.600
459.996 197.600
459.382 213.600
458.768 206.600
458.154 217.400
457.538 211.600
456.924 205.800
456.309 205.600
455.695 214.400
455.080 218.400
454.466 209.600
453.851 210.000
453.237 205.400
452.622 215.200
452.008 212.000
451.393 214.400
450.778 210.400
450.162 216.000
449.547 212.400
448.932 213.400
448.318 209.000
447.703 210.600
447.088 220.800
446.472 213.600
445.856 216.800
445.241 222.000
444.626 214.000
444.010 224.200
443.395 217.000
442.780 218.000
442.164 214.800
441.548 221.600
440.932 221.200
440.317 223.000
439.700 223.400
439.085 222.000
438.469 225.000
437.853 232.200
437.237 220.200
436.622 229.600
436.005 228.000
435.389 235.800
434.773 235.800
434.156 233.200
433.541 231.000
432.923 239.600
432.308 236.200
431.690 244.800
431.075 242.800
430.457 243.000
429.841 247.600
429.225 248.200
428.608 254.800
427.992 245.600
427.374 244.400
426.757 251.800
426.141 254.400
425.523 254.200
424.907 261.800
424.289 249.400
423.673 249.600
423.055 253.600
422.438 246.800
421.821 257.600
421.203 256.000
420.587 262.400
419.969 271.800
419.351 266.800
418.734 271.600
418.116 263.400
417.498 263.800
416.882 257.000
416.263 270.800
415.645 251.400
415.027 267.200
414.410 256.000
413.792 276.600
413.174 264.000
412.555 278.200
411.938 284.800
411.320 267.800
410.702 277.800
410.083 265.200
409.466 264.400
408.847 265.600
408.229 277.800
407.610 276.000
406.991 270.400
406.373 274.000
405.754 278.000
405.136 276.000
404.518 259.600
403.899 278.600
403.280 294.000
402.661 277.000
402.042 278.400
401.423 276.000
400.804 275.800
400.185 278.400
399.566 284.800
398.947 272.000
398.328 267.800
397.708 285.000
397.089 265.200
396.470 266.600
395.850 264.200
395.231 273.400
394.612 269.200
393.992 268.400
393.373 253.200
392.753 264.600
392.134 251.000
391.514 260.800
390.893 260.200
390.273 258.600
389.654 251.600
389.034 257.800
388.414 267.000
387.794 258.200
387.174 252.600
386.553 276.800
385.933 264.600
385.313 274.000
384.693 266.400
384.072 288.000
383.452 290.600
382.832 292.200
382.212 305.200
381.590 312.600
380.970 329.600
380.350 343.000
379.729 356.000
379.108 381.800
378.487 391.000
377.867 401.800
377.245 419.600
376.625 422.000
376.004 430.400
375.382 445.600
374.762 456.200
374.141 456.600
373.519 481.400
372.898 471.200
372.276 482.800
371.655 481.400
371.033 504.600
370.412 511.600
369.791 528.600
369.169 549.800
368.548 545.600
367.926 577.800
367.305 590.400
366.682 619.400
366.061 609.000
365.439 627.000
364.818 627.600
364.195 624.600
363.573 624.000
362.951 633.600
362.329 628.600
361.707 653.000
361.084 663.000
360.462 679.200
359.840 726.400
359.217 742.400
358.596 779.000
357.973 819.600
357.350 840.800
356.728 900.400
356.105 906.400
355.482 915.000
354.860 949.400
354.237 956.800
353.614 985.000
352.991 991.400
352.369 1025.200
351.745 1040.200
351.122 1048.200
350.499 1103.400
349.876 1122.200
349.253 1203.800
348.629 1226.600
348.006 1298.800
347.382 1382.800
346.760 1460.400
346.136 1618.600
345.513 1847.400
344.889 2119.800
344.265 2531.000
343.641 3070.800
343.018 3765.200
342.395 4558.200
341.771 5280.800
341.147 5770.000
340.523 5926.200
339.899 5725.600
339.275 5247.800
338.651 4621.000
338.027 4076.600
337.403 3506.800
336.778 3086.800
336.154 2734.600
335.530 2477.800
334.905 2198.600
334.281 1998.000
333.657 1790.600
333.032 1591.400
332.408 1460.200
331.783 1305.200
331.159 1205.800
330.534 1092.000
329.909 1027.200
329.285 960.200
328.659 894.200
328.034 828.400
327.409 785.200
326.784 711.400
326.159 683.800
325.535 640.800
324.910 627.600
324.283 579.800
323.658 571.000
323.033 553.000
322.408 546.600
321.783 525.600
321.157 534.400
320.531 551.600
319.906 549.800
319.281 570.400
318.654 553.400
318.029 569.600
317.403 560.600
316.777 575.600
316.151 580.800
315.526 578.000
314.899 576.000
314.273 576.000
313.648 572.800
313.021 563.400
312.395 576.000
311.769 575.200
311.142 571.200
310.516 574.600
309.889 566.600
309.263 566.400
308.637 576.200
308.010 557.400
307.384 568.400
306.757 570.000
306.131 554.800
305.503 580.200
304.877 572.000
304.249 560.600
303.623 562.600
302.996 573.000
302.369 577.000
301.742 576.600
301.115 591.600
300.487 599.400
299.861 596.400
299.233 616.200
298.605 632.000
297.979 654.200
297.351 667.600
296.724 682.800
296.096 729.000
295.468 755.400
294.841 797.200
294.213 866.600
293.585 907.600
292.958 974.600
292.330 1050.600
291.702 1063.800
291.075 1107.000
290.446 1147.200
289.818 1109.200
289.189 1095.600
288.562 1049.000
287.934 983.000
287.305 930.000
286.677 849.600
286.049 783.600
285.421 729.000
284.792 676.800
284.163 642.600
283.534 625.200
282.907 585.000
282.278 591.000
281.649 554.400
281.020 561.200
280.391 549.600
279.762 528.200
279.133 502.400
278.505 503.800
277.876 503.200
277.247 500.200
276.618 492.200
275.989 483.200
275.359 469.200
274.730 471.400
274.101 441.200
273.471 441.200
272.842 430.800
272.212 429.000
271.583 410.400
270.953 409.800
270.324 401.000
269.694 399.000
269.065 397.600
268.435 390.800
267.805 381.000
267.175 390.200
266.545 407.000
265.916 407.000
265.284 396.200
264.655 397.600
264.025 389.600
263.395 385.200
262.764 394.600
262.134 390.800
261.504 396.200
260.873 377.200
260.243 395.600
259.612 383.800
258.982 393.800
258.352 392.200
257.720 388.000
257.090 382.200
256.459 382.000
255.829 384.800
255.197 369.800
254.566 364.200
253.936 384.800
253.305 363.200
252.673 356.000
252.042 365.400
251.412 353.000
250.780 336.600
250.149 337.800
249.518 338.600
248.886 321.400
248.255 323.600
247.624 309.400
246.992 296.000
246.360 288.000
245.728 294.600
245.097 291.800
244.466 277.000
243.833 276.400
243.202 272.600
242.569 263.800
241.938 258.600
241.305 250.400
240.674 259.400
240.041 239.800
239.410 245.200
238.777 229.200
238.145 244.200
237.512 236.000
236.881 227.400
236.248 238.400
235.616 225.400
234.983 212.600
234.351 220.800
233.718 217.800
233.085 203.400
232.453 217.800
231.820 206.200
231.186 204.600
230.554 205.400
229.921 197.800
229.289 202.400
228.655 210.200
228.022 212.400
227.390 207.800
226.756 197.000
226.123 198.200
225.489 211.400
224.856 197.600
224.223 192.800
223.589 197.000
222.955 196.200
222.323 203.600
221.689 197.000
221.055 200.200
220.421 191.400
219.788 196.000
219.154 193.200
218.520 192.200
217.886 197.400
217.252 192.600
216.618 187.600
215.985 194.200
215.350 192.400
214.716 189.600
214.082 186.800
213.447 190.200
212.813 187.400
212.178 176.600
