834.788 224.200
834.204 222.800
833.621 219.600
833.037 230.400
832.453 221.200
831.870 225.400
831.286 220.000
830.702 209.600
830.118 227.400
829.535 226.000
828.950 221.800
828.367 219.200
827.782 215.400
827.198 216.000
826.615 227.800
826.030 210.800
825.446 229.800
824.861 227.400
824.277 225.000
823.692 214.600
823.109 215.600
822.523 216.400
821.940 230.600
821.354 228.600
820.770 224.800
820.185 233.400
819.601 220.200
819.016 220.800
818.431 219.600
817.846 221.200
817.261 221.600
816.677 230.000
816.091 221.200
815.506 215.200
814.922 225.400
814.336 215.400
813.750 226.400
813.166 222.000
812.580 214.200
811.995 217.800
811.410 220.800
810.824 229.600
810.239 220.600
809.653 226.600
809.068 211.400
808.482 217.000
807.896 218.000
807.310 215.600
806.724 227.800
806.139 225.400
805.553 219.400
804.967 219.600
804.381 229.800
803.795 220.800
803.209 222.200
802.624 216.600
802.037 213.000
801.451 218.200
800.865 223.600
800.278 229.200
799.692 209.000
799.105 218.200
798.519 229.400
797.932 234.200
797.346 222.400
796.759 219.000
796.173 224.800
795.586 218.800
794.999 222.600
794.412 217.800
793.826 213.000
793.239 221.000
792.652 224.200
792.065 213.600
791.478 227.000
790.891 216.200
790.303 208.400
789.716 214.600
789.129 215.400
788.542 221.800
787.955 224.000
787.368 220.000
786.781 223.400
786.192 226.400
785.605 218.400
785.018 221.400
784.430 219.400
783.842 226.200
783.254 218.600
782.667 219.600
782.079 218.600
781.491 223.800
780.903 236.200
780.316 221.600
779.727 210.800
779.139 222.000
778.551 227.800
777.963 219.200
777.375 223.600
776.787 216.200
776.198 230.600
775.610 216.200
775.022 224.400
774.433 221.200
773.845 222.600
773.256 229.400
772.668 220.800
772.079 225.800
771.491 217.200
770.901 223.200
770.313 211.800
769.724 217.400
769.136 218.600
768.546 220.200
767.958 224.800
767.368 223.400
766.780 225.400
766.190 229.000
765.602 213.200
765.012 216.600
764.422 220.600
763.834 235.400
763.244 217.000
762.655 233.200
762.066 224.200
761.476 220.000
760.887 222.200
760.297 223.200
759.707 222.800
759.117 223.000
758.528 231.000
757.938 224.000
757.348 229.600
756.759 231.800
756.169 230.000
755.578 227.200
754.988 223.200
754.398 229.000
753.809 221.200
753.218 221.200
752.628 221.800
752.037 237.000
751.447 232.000
750.858 230.600
750.267 226.200
749.676 224.200
749.086 226.000
748.495 232.600
747.904 224.000
747.314 216.600
746.723 232.400
746.132 228.000
745.541 232.000
744.950 236.600
744.360 233.200
743.769 230.400
743.178 231.000
742.587 222.600
741.996 232.000
741.404 231.800
740.813 229.200
740.222 230.200
739.631 222.200
739.040 229.800
738.449 237.800
737.857 226.800
737.266 230.600
736.674 223.400
736.083 227.800
735.490 227.200
734.899 226.000
734.307 220.200
733.716 237.600
733.124 234.600
732.533 233.200
731.940 234.200
731.348 231.400
730.756 235.000
730.165 228.000
729.572 226.400
728.980 231.400
728.388 237.600
727.796 239.000
727.203 232.200
726.611 230.600
726.019 231.000
725.426 235.800
724.834 229.600
724.242 232.600
723.648 234.600
723.056 229.200
722.464 228.200
721.870 232.000
721.278 237.200
720.685 234.600
720.092 238.800
719.500 236.600
718.906 236.000
718.314 232.200
717.720 233.200
717.127 235.200
716.534 249.000
715.941 242.400
715.347 238.800
714.755 237.800
714.161 247.200
713.568 247.400
712.974 248.800
712.380 250.000
711.787 253.000
711.193 246.000
710.600 242.800
710.006 245.000
709.412 259.800
708.819 259.000
708.224 259.200
707.631 265.200
707.037 258.400
706.443 268.000
705.848 257.600
705.255 263.800
704.660 264.200
704.066 296.400
703.472 264.600
702.878 275.200
702.283 266.600
701.689 276.600
701.095 270.000
700.500 274.600
699.906 271.600
699.311 272.000
698.716 260.000
698.122 278.400
697.527 283.600
696.932 280.200
696.337 284.600
695.742 282.000
695.147 278.200
694.552 277.600
693.957 292.600
693.363 293.200
692.768 283.600
692.173 279.600
691.578 284.000
690.982 298.600
690.387 286.800
689.791 287.800
689.196 286.600
688.601 277.800
688.005 294.800
687.410 299.000
686.814 275.600
686.218 294.000
685.623 287.000
685.027 290.600
684.431 290.600
683.835 302.800
683.239 301.000
682.643 306.400
682.047 313.800
681.451 299.600
680.855 296.000
680.259 310.600
679.663 317.000
679.066 320.200
678.470 336.400
677.874 332.000
677.278 344.600
676.682 341.400
676.084 343.800
675.488 346.000
674.892 341.000
674.296 351.000
673.698 345.600
673.102 338.400
672.505 358.400
671.908 347.200
671.311 338.200
670.715 346.600
670.117 346.000
669.520 338.600
668.924 355.200
668.326 334.000
667.729 346.000
667.132 341.400
666.534 321.200
665.937 323.800
665.339 317.000
664.743 327.000
664.146 316.800
663.548 300.200
662.950 324.200
662.352 309.200
661.755 308.200
661.157 293.200
660.560 292.800
659.961 305.000
659.364 304.000
658.766 299.400
658.168 296.400
657.570 295.200
656.971 297.800
656.374 286.800
655.775 294.600
655.178 280.400
654.579 277.200
653.980 285.600
653.383 286.000
652.784 276.600
652.185 286.800
651.588 274.400
650.989 286.000
650.390 295.600
649.792 270.600
649.193 280.200
648.594 279.600
647.996 276.000
647.397 281.000
646.798 267.200
646.199 270.200
645.599 272.400
645.001 275.600
644.402 275.800
643.803 282.000
643.203 281.200
642.604 271.200
642.006 274.000
641.406 274.000
640.806 274.800
640.207 269.000
639.607 270.800
639.008 273.600
638.408 266.200
637.808 266.200
637.210 260.800
636.610 265.400
636.010 260.400
635.410 258.800
634.810 272.200
634.211 266.400
633.611 255.400
633.011 260.400
632.411 260.400
631.810 260.400
631.210 260.400
630.610 252.800
630.010 259.400
629.410 260.400
628.808 250.800
628.208 246.800
627.608 208.800
627.007 265.000
626.407 259.000
625.807 266.200
625.206 243.800
624.606 254.600
624.004 257.000
623.403 250.800
622.803 244.800
622.202 254.200
621.601 253.800
620.999 243.200
620.399 250.200
619.798 243.800
619.197 253.000
618.596 252.600
617.994 253.800
617.393 254.200
616.792 258.400
616.190 246.600
615.589 253.600
614.988 247.800
614.385 244.600
613.784 252.200
613.183 251.600
612.581 240.800
611.979 250.400
611.378 245.400
610.776 253.800
610.174 249.800
609.572 243.000
608.970 254.000
608.369 245.000
607.766 245.200
607.164 238.600
606.561 257.200
605.960 238.400
605.357 250.400
604.755 252.400
604.152 246.000
603.551 232.600
602.948 242.600
602.346 259.200
601.743 238.600
601.139 238.800
600.537 238.800
599.934 241.200
599.332 236.600
598.729 238.600
598.126 229.200
597.524 242.200
596.920 244.000
596.318 239.600
595.715 233.000
595.111 232.400
594.509 239.000
593.905 236.200
593.301 235.000
592.698 231.200
592.095 244.800
591.492 231.400
590.888 237.000
590.285 236.400
589.681 234.400
589.078 223.600
588.474 241.000
587.870 227.200
587.267 232.200
586.663 227.800
586.059 222.400
585.455 232.200
584.851 222.200
584.247 233.000
583.644 229.200
583.039 223.600
582.435 223.400
581.831 226.000
581.227 220.400
580.622 233.400
580.018 220.000
579.413 215.400
578.809 219.000
578.204 224.200
577.600 231.800
576.995 229.600
576.390 217.400
575.786 210.200
575.181 220.600
574.576 212.800
573.972 221.000
573.367 212.600
572.762 224.600
572.157 219.600
571.552 215.400
570.947 215.200
570.342 220.000
569.737 229.800
569.131 207.200
568.526 209.400
567.921 218.600
567.315 215.200
566.710 224.800
566.105 215.200
565.498 222.000
564.893 211.800
564.288 210.400
563.682 211.000
563.077 227.600
562.470 207.600
561.865 219.600
561.259 215.800
560.654 212.600
560.047 209.400
559.441 211.400
558.835 210.600
558.228 211.600
557.623 209.400
557.017 220.800
556.410 222.800
555.804 215.400
555.198 217.400
554.591 211.600
553.985 214.400
553.379 207.800
552.772 216.200
552.165 216.200
551.558 215.000
550.952 206.600
550.344 211.600
549.738 214.600
549.131 214.800
548.524 220.200
547.918 214.000
547.310 209.400
546.704 211.000
546.096 216.200
545.489 209.400
544.882 214.000
544.274 213.400
543.668 214.200
543.060 211.000
542.453 203.200
541.845 210.400
541.237 209.800
540.630 212.800
540.022 214.200
539.415 213.200
538.807 211.800
538.199 211.800
537.592 212.400
536.984 199.400
536.376 216.000
535.768 211.200
535.160 199.000
534.552 208.800
533.943 220.400
533.336 206.000
532.728 209.800
532.119 210.000
531.510 209.400
530.903 206.600
530.294 215.600
529.686 215.400
529.077 216.600
528.468 201.400
527.859 206.600
527.252 220.400
526.643 210.800
526.034 216.000
525.425 216.600
524.816 202.600
524.207 209.400
523.598 208.800
522.989 216.600
522.380 210.600
521.772 215.400
521.163 212.200
520.553 209.600
519.944 211.000
519.335 206.600
518.725 205.600
518.116 211.400
517.507 206.600
516.897 212.400
516.288 212.800
515.678 209.600
515.069 214.600
514.458 213.000
513.848 218.000
513.238 207.000
512.629 212.700
512.019 205.000
511.409 216.800
510.799 216.000
510.189 213.600
509.579 221.000
508.968 218.200
508.358 207.400
507.748 212.600
507.138 207.200
506.528 214.000
505.918 206.800
505.307 223.000
504.696 208.400
504.086 213.600
503.476 217.200
502.864 216.800
502.254 219.200
501.644 214.000
501.032 214.000
500.421 223.000
499.811 222.400
499.200 210.000
498.589 225.800
497.978 217.800
497.367 217.600
496.755 217.800
496.145 210.400
495.533 222.200
494.922 210.600
494.311 230.400
493.699 210.400
493.088 215.400
492.476 213.400
491.865 213.800
491.253 222.800
490.641 227.400
490.029 228.600
489.418 225.200
488.806 222.400
488.194 226.400
487.582 234.200
486.971 237.600
486.358 231.000
485.747 235.000
485.134 232.000
484.523 236.600
483.910 237.600
483.298 241.600
482.686 255.600
482.073 248.800
481.461 261.400
480.848 269.000
480.235 284.800
479.624 282.200
479.011 290.800
478.398 271.000
477.786 307.000
477.173 297.400
476.560 305.400
475.948 312.600
475.334 296.200
474.721 303.600
474.108 293.000
473.496 278.800
472.882 275.400
472.269 267.200
471.655 255.600
471.043 257.400
470.430 254.000
469.816 252.000
469.202 243.200
468.589 243.800
467.975 246.800
467.363 240.600
466.749 240.000
466.135 235.200
465.521 229.200
464.907 235.400
464.293 220.800
463.680 230.200
463.066 234.000
462.452 225.000
461.838 219.600
461.223 223.800
460.609 228.000
459.996 218.200
459.382 224.800
458.768 220.800
458.154 221.000
457.538 222.800
456.924 223.200
456.309 222.800
455.695 223.800
455.080 223.600
454.466 218.800
453.851 219.800
453.237 212.600
452.622 226.600
452.008 222.600
451.393 212.200
450.778 215.400
450.162 232.400
449.547 211.000
448.932 228.600
448.318 222.600
447.703 215.800
447.088 215.200
446.472 226.800
445.856 216.400
445.241 212.400
444.626 231.200
444.010 223.200
443.395 214.800
442.780 223.600
442.164 217.600
441.548 218.000
440.932 222.400
440.317 219.800
439.700 214.600
439.085 218.600
438.469 222.400
437.853 207.000
437.237 224.200
436.622 222.800
436.005 230.200
435.389 231.600
434.773 225.800
434.156 226.800
433.541 225.800
432.923 216.000
432.308 231.600
431.690 235.200
431.075 238.200
430.457 225.800
429.841 221.600
429.225 229.200
428.608 231.600
427.992 233.600
427.374 244.600
426.757 230.400
426.141 232.800
425.523 241.400
424.907 239.800
424.289 236.600
423.673 226.000
423.055 233.000
422.438 232.800
421.821 238.200
421.203 242.400
420.587 237.400
419.969 240.000
419.351 242.200
418.734 240.200
418.116 243.600
417.498 242.200
416.882 250.400
416.263 243.800
415.645 242.200
415.027 240.000
414.410 243.400
413.792 248.600
413.174 248.400
412.555 249.800
411.938 241.200
411.320 243.600
410.702 240.200
410.083 244.600
409.466 252.600
408.847 249.200
408.229 253.000
407.610 246.000
406.991 250.200
406.373 241.200
405.754 245.600
405.136 252.800
404.518 246.800
403.899 252.200
403.280 234.600
402.661 247.200
402.042 239.800
401.423 244.000
400.804 256.800
400.185 251.200
399.566 251.400
398.947 246.200
398.328 255.800
397.708 253.400
397.089 250.600
396.470 256.200
395.850 252.000
395.231 249.600
394.612 242.800
393.992 249.800
393.373 251.200
392.753 249.200
392.134 242.000
391.514 251.000
390.893 248.800
390.273 240.600
389.654 246.600
389.034 252.200
388.414 257.400
387.794 257.400
387.174 262.600
386.553 253.800
385.933 268.800
385.313 262.200
384.693 263.200
384.072 251.000
383.452 271.600
382.832 264.000
382.212 281.600
381.590 290.800
380.970 280.600
380.350 302.800
379.729 304.800
379.108 321.000
378.487 331.800
377.867 344.400
377.245 351.800
376.625 339.200
376.004 362.000
375.382 371.000
374.762 383.800
374.141 380.400
373.519 378.600
372.898 397.400
372.276 403.400
371.655 396.400
371.033 423.200
370.412 419.000
369.791 432.200
369.169 433.200
368.548 444.600
367.926 443.600
367.305 463.800
366.682 476.200
366.061 483.600
365.439 480.600
364.818 484.200
364.195 511.000
363.573 509.200
362.951 521.200
362.329 514.000
361.707 532.200
361.084 534.000
360.462 551.400
359.840 553.200
359.217 546.800
358.596 552.000
357.973 558.800
357.350 562.600
356.728 562.600
356.105 567.400
355.482 571.600
354.860 567.400
354.237 571.800
353.614 571.600
352.991 585.400
352.369 593.800
351.745 616.200
351.122 619.600
350.499 623.600
349.876 641.200
349.253 667.000
348.629 682.000
348.006 709.800
347.382 744.200
346.760 771.600
346.136 803.200
345.513 877.600
344.889 985.000
344.265 1089.400
343.641 1280.200
343.018 1481.600
342.395 1691.000
341.771 1964.000
341.147 2163.600
340.523 2327.200
339.899 2382.400
339.275 2341.400
338.651 2138.400
338.027 2016.600
337.403 1852.200
336.778 1664.000
336.154 1530.200
335.530 1438.200
334.905 1330.200
334.281 1242.200
333.657 1145.800
333.032 1076.800
332.408 1002.200
331.783 934.600
331.159 892.200
330.534 820.000
329.909 771.000
329.285 735.000
328.659 717.400
328.034 665.400
327.409 645.400
326.784 615.000
326.159 586.800
325.535 554.400
324.910 519.200
324.283 504.800
323.658 489.400
323.033 458.600
322.408 465.400
321.783 448.000
321.157 436.400
320.531 426.600
319.906 430.000
319.281 422.800
318.654 414.800
318.029 401.600
317.403 433.600
316.777 422.800
316.151 409.200
315.526 408.000
314.899 402.400
314.273 413.800
313.648 417.400
313.021 412.800
312.395 411.400
311.769 417.800
311.142 412.200
310.516 405.400
309.889 392.000
309.263 396.600
308.637 391.200
308.010 388.600
307.384 392.000
306.757 387.400
306.131 389.600
305.503 400.200
304.877 387.000
304.249 401.200
303.623 388.400
302.996 400.000
302.369 404.600
301.742 396.200
301.115 409.200
300.487 408.600
299.861 411.000
299.233 414.000
298.605 408.400
297.979 414.000
297.351 439.200
296.724 442.800
296.096 444.000
295.468 451.400
294.841 479.600
294.213 490.600
293.585 514.400
292.958 535.400
292.330 557.000
291.702 578.800
291.075 594.600
290.446 592.000
289.818 614.600
289.189 603.800
288.562 600.800
287.934 571.200
287.305 544.000
286.677 531.200
286.049 506.400
285.421 481.600
284.792 469.200
284.163 443.800
283.534 432.000
282.907 407.000
282.278 416.200
281.649 418.800
281.020 398.200
280.391 412.400
279.762 397.600
279.133 393.000
278.505 386.600
277.876 382.600
277.247 390.600
276.618 367.400
275.989 369.200
275.359 373.200
274.730 356.000
274.101 358.400
273.471 356.800
272.842 345.600
272.212 327.000
271.583 333.000
270.953 334.400
270.324 324.800
269.694 336.000
269.065 337.800
268.435 325.400
267.805 323.600
267.175 316.200
266.545 323.400
265.916 315.400
265.284 313.400
264.655 326.400
264.025 326.400
263.395 305.000
262.764 318.800
262.134 322.400
261.504 312.400
260.873 307.600
260.243 308.200
259.612 310.600
258.982 315.200
258.352 309.600
257.720 312.000
257.090 306.800
256.459 316.800
255.829 299.800
255.197 311.600
254.566 319.200
253.936 310.000
253.305 308.000
252.673 303.400
252.042 310.600
251.412 300.000
250.780 294.400
250.149 284.800
249.518 287.600
248.886 283.000
248.255 282.000
247.624 282.000
246.992 268.000
246.360 289.200
245.728 268.600
245.097 250.400
244.466 262.800
243.833 255.400
243.202 248.600
242.569 260.200
241.938 252.000
241.305 244.200
240.674 260.200
240.041 238.800
239.410 246.800
238.777 226.400
238.145 240.200
237.512 225.000
236.881 224.600
236.248 219.000
235.616 225.000
234.983 217.800
234.351 219.600
233.718 219.200
233.085 216.600
232.453 207.400
231.820 207.000
231.186 219.800
230.554 215.000
229.921 207.400
229.289 201.400
228.655 216.400
228.022 214.000
227.390 197.000
226.756 221.400
226.123 202.200
225.489 210.600
224.856 204.400
224.223 195.600
223.589 204.000
222.955 207.200
222.323 198.600
221.689 216.400
221.055 206.000
220.421 198.400
219.788 197.200
219.154 203.800
218.520 214.800
217.886 192.000
217.252 196.200
216.618 203.600
215.985 201.800
215.350 191.000
214.716 199.200
214.082 197.600
213.447 195.200
212.813 190.600
212.178 183.600
