834.788 137.400
834.204 133.000
833.621 135.600
833.037 143.400
832.453 141.000
831.870 140.600
831.286 136.000
830.702 130.800
830.118 136.000
829.535 131.400
828.950 132.600
828.367 139.200
827.782 135.000
827.198 137.000
826.615 137.000
826.030 143.000
825.446 140.800
824.861 137.600
824.277 128.600
823.692 131.000
823.109 137.000
822.523 146.800
821.940 143.800
821.354 145.400
820.770 141.000
820.185 144.800
819.601 147.400
819.016 140.800
818.431 140.600
817.846 137.600
817.261 141.200
816.677 150.000
816.091 136.800
815.506 137.600
814.922 143.600
814.336 145.400
813.750 137.400
813.166 135.000
812.580 136.200
811.995 141.400
811.410 131.600
810.824 137.400
810.239 130.000
809.653 133.000
809.068 140.200
808.482 135.000
807.896 140.400
807.310 137.400
806.724 135.400
806.139 144.800
805.553 136.600
804.967 144.000
804.381 138.400
803.795 137.400
803.209 142.000
802.624 132.000
802.037 132.800
801.451 140.000
800.865 136.000
800.278 138.400
799.692 143.600
799.105 145.400
798.519 131.200
797.932 138.600
797.346 146.000
796.759 137.800
796.173 145.200
795.586 131.000
794.999 137.600
794.412 141.800
793.826 140.000
793.239 146.200
792.652 149.600
792.065 140.600
791.478 141.600
790.891 146.000
790.303 141.000
789.716 143.600
789.129 139.800
788.542 145.000
787.955 137.600
787.368 146.600
786.781 131.200
786.192 137.200
785.605 141.400
785.018 143.000
784.430 138.400
783.842 143.400
783.254 146.200
782.667 147.400
782.079 136.600
781.491 143.600
780.903 143.400
780.316 147.200
779.727 138.800
779.139 146.600
778.551 138.400
777.963 141.200
777.375 146.000
776.787 147.200
776.198 142.000
775.610 144.400
775.022 148.000
774.433 142.000
773.845 146.600
773.256 142.200
772.668 144.200
772.079 143.000
771.491 146.800
770.901 138.800
770.313 145.400
769.724 139.600
769.136 139.000
768.546 147.400
767.958 148.800
767.368 148.000
766.780 139.800
766.190 142.400
765.602 146.800
765.012 141.200
764.422 147.200
763.834 146.200
763.244 146.600
762.655 144.400
762.066 147.800
761.476 145.000
760.887 148.400
760.297 146.600
759.707 144.600
759.117 149.400
758.528 145.800
757.938 155.400
757.348 145.400
756.759 148.800
756.169 154.000
755.578 147.800
754.988 160.000
754.398 147.000
753.809 152.000
753.218 155.000
752.628 149.000
752.037 153.400
751.447 147.200
750.858 156.800
750.267 155.000
749.676 159.600
749.086 151.400
748.495 159.800
747.904 158.000
747.314 159.400
746.723 151.200
746.132 151.400
745.541 157.200
744.950 162.000
744.360 159.200
743.769 156.600
743.178 153.400
742.587 159.000
741.996 155.400
741.404 154.200
740.813 163.000
740.222 160.000
739.631 164.200
739.040 158.800
738.449 157.000
737.857 156.800
737.266 152.800
736.674 158.600
736.083 157.800
735.490 157.800
734.899 159.600
734.307 146.000
733.716 154.600
733.124 162.800
732.533 149.800
731.940 156.000
731.348 168.600
730.756 156.400
730.165 165.400
729.572 154.000
728.980 156.000
728.388 155.600
727.796 157.200
727.203 149.600
726.611 152.000
726.019 159.600
725.426 153.400
724.834 164.400
724.242 155.400
723.648 161.800
723.056 149.600
722.464 152.200
721.870 167.000
721.278 162.000
720.685 173.000
720.092 162.800
719.500 162.600
718.906 164.600
718.314 154.200
717.720 158.200
717.127 161.000
716.534 159.000
715.941 169.000
715.347 168.200
714.755 164.000
714.161 166.600
713.568 167.800
712.974 173.800
712.380 177.000
711.787 164.800
711.193 170.600
710.600 169.200
710.006 179.000
709.412 181.600
708.819 180.200
708.224 184.200
707.631 186.000
707.037 174.600
706.443 181.800
705.848 190.800
705.255 182.800
704.660 194.800
704.066 225.000
703.472 191.800
702.878 200.400
702.283 207.400
701.689 202.000
701.095 204.000
700.500 209.600
699.906 204.000
699.311 204.600
698.716 204.600
698.122 209.800
697.527 216.600
696.932 212.600
696.337 220.400
695.742 229.800
695.147 226.600
694.552 227.000
693.957 221.200
693.363 220.200
692.768 224.400
692.173 228.200
691.578 222.600
690.982 233.400
690.387 232.800
689.791 229.400
689.196 233.800
688.601 232.400
688.005 224.400
687.410 237.400
686.814 234.400
686.218 240.800
685.623 228.600
685.027 239.800
684.431 248.400
683.835 239.400
683.239 247.400
682.643 250.800
682.047 240.200
681.451 245.600
680.855 254.000
680.259 256.800
679.663 260.000
679.066 268.000
678.470 267.000
677.874 271.000
677.278 278.800
676.682 292.200
676.084 287.600
675.488 296.800
674.892 305.400
674.296 307.200
673.698 300.600
673.102 308.200
672.505 318.400
671.908 322.800
671.311 316.200
670.715 324.800
670.117 307.600
669.520 319.600
668.924 321.200
668.326 319.200
667.729 314.200
667.132 294.000
666.534 301.600
665.937 301.400
665.339 291.200
664.743 297.200
664.146 294.800
663.548 282.000
662.950 275.600
662.352 271.600
661.755 276.400
661.157 270.000
660.560 270.400
659.961 258.600
659.364 259.200
658.766 253.400
658.168 253.200
657.570 239.800
656.971 234.400
656.374 245.200
655.775 224.200
655.178 229.400
654.579 233.000
653.980 227.400
653.383 232.400
652.784 216.000
652.185 230.600
651.588 232.400
650.989 230.200
650.390 217.000
649.792 225.200
649.193 218.800
648.594 225.400
647.996 224.000
647.397 215.600
646.798 219.200
646.199 221.000
645.599 223.400
645.001 228.800
644.402 215.800
643.803 227.600
643.203 216.600
642.604 219.800
642.006 207.000
641.406 219.800
640.806 210.000
640.207 208.000
639.607 208.800
639.008 210.200
638.408 198.600
637.808 205.800
637.210 215.600
636.610 202.000
636.010 200.200
635.410 195.000
634.810 202.000
634.211 198.400
633.611 205.000
633.011 204.600
632.411 202.600
631.810 205.200
631.210 200.400
630.610 191.800
630.010 202.600
629.410 208.000
628.808 202.000
628.208 210.000
627.608 168.200
627.007 204.200
626.407 205.000
625.807 209.800
625.206 198.400
624.606 205.400
624.004 200.800
623.403 196.000
622.803 206.200
622.202 201.000
621.601 199.000
620.999 192.400
620.399 214.800
619.798 213.600
619.197 196.600
618.596 199.800
617.994 196.400
617.393 195.800
616.792 192.000
616.190 190.600
615.589 193.600
614.988 188.000
614.385 198.800
613.784 194.000
613.183 196.800
612.581 190.800
611.979 199.600
611.378 191.400
610.776 189.200
610.174 189.800
609.572 195.800
608.970 187.400
608.369 184.800
607.766 189.400
607.164 189.000
606.561 200.000
605.960 196.400
605.357 195.000
604.755 196.400
604.152 193.800
603.551 191.600
602.948 183.600
602.346 196.600
601.743 196.600
601.139 185.600
600.537 183.800
599.934 184.800
599.332 190.600
598.729 188.200
598.126 181.600
597.524 186.600
596.920 184.600
596.318 188.000
595.715 191.400
595.111 182.600
594.509 180.600
593.905 179.200
593.301 171.800
592.698 177.200
592.095 180.400
591.492 168.000
590.888 171.000
590.285 174.400
589.681 178.800
589.078 170.200
588.474 174.800
587.870 169.400
587.267 166.400
586.663 172.600
586.059 166.600
585.455 173.600
584.851 162.000
584.247 165.800
583.644 169.600
583.039 174.600
582.435 166.800
581.831 174.000
581.227 161.800
580.622 167.400
580.018 159.200
579.413 170.400
578.809 161.400
578.204 165.600
577.600 162.600
576.995 163.600
576.390 151.800
575.786 163.000
575.181 156.600
574.576 165.600
573.972 169.800
573.367 153.400
572.762 150.800
572.157 154.400
571.552 154.200
570.947 152.800
570.342 164.000
569.737 151.800
569.131 159.800
568.526 159.000
567.921 153.200
567.315 154.000
566.710 155.400
566.105 151.000
565.498 161.800
564.893 151.400
564.288 158.600
563.682 150.000
563.077 152.000
562.470 146.800
561.865 138.600
561.259 140.400
560.654 153.600
560.047 155.400
559.441 157.400
558.835 153.000
558.228 151.400
557.623 146.600
557.017 154.800
556.410 150.600
555.804 147.000
555.198 150.600
554.591 154.800
553.985 149.200
553.379 153.600
552.772 151.400
552.165 154.200
551.558 145.600
550.952 146.600
550.344 151.800
549.738 145.800
549.131 153.600
548.524 149.000
547.918 154.600
547.310 136.800
546.704 150.200
546.096 149.200
545.489 154.400
544.882 148.800
544.274 138.400
543.668 148.000
543.060 157.000
542.453 148.800
541.845 152.000
541.237 152.800
540.630 149.600
540.022 154.600
539.415 146.800
538.807 142.600
538.199 139.200
537.592 154.200
536.984 150.200
536.376 146.000
535.768 144.800
535.160 149.800
534.552 144.600
533.943 140.000
533.336 141.400
532.728 154.800
532.119 148.600
531.510 146.800
530.903 156.200
530.294 145.200
529.686 149.600
529.077 149.800
528.468 139.000
527.859 139.200
527.252 149.800
526.643 152.800
526.034 147.000
525.425 146.600
524.816 153.000
524.207 156.600
523.598 144.400
522.989 142.800
522.380 145.800
521.772 142.600
521.163 149.200
520.553 151.400
519.944 151.400
519.335 150.400
518.725 143.400
518.116 151.800
517.507 143.800
516.897 141.400
516.288 156.000
515.678 144.400
515.069 147.400
514.458 147.800
513.848 142.400
513.238 150.800
512.629 147.800
512.019 143.200
511.409 145.000
510.799 152.800
510.189 143.000
509.579 157.400
508.968 158.200
508.358 149.400
507.748 159.000
507.138 162.600
506.528 156.200
505.918 150.000
505.307 152.000
504.696 148.800
504.086 155.600
503.476 155.200
502.864 162.400
502.254 156.000
501.644 150.600
501.032 153.600
500.421 153.400
499.811 147.600
499.200 158.000
498.589 161.800
497.978 161.800
497.367 156.800
496.755 154.400
496.145 152.800
495.533 161.000
494.922 162.800
494.311 166.800
493.699 148.600
493.088 151.600
492.476 156.800
491.865 160.600
491.253 170.000
490.641 164.400
490.029 163.400
489.418 158.600
488.806 161.600
488.194 157.600
487.582 163.800
486.971 160.800
486.358 164.800
485.747 160.000
485.134 172.600
484.523 166.200
483.910 170.600
483.298 168.600
482.686 170.000
482.073 178.200
481.461 168.800
480.848 167.000
480.235 165.400
479.624 183.000
479.011 178.200
478.398 166.400
477.786 174.400
477.173 175.800
476.560 174.200
475.948 167.800
475.334 173.200
474.721 169.200
474.108 174.800
473.496 170.000
472.882 161.800
472.269 165.800
471.655 171.000
471.043 171.000
470.430 167.000
469.816 169.400
469.202 168.800
468.589 159.200
467.975 162.800
467.363 156.800
466.749 158.600
466.135 154.400
465.521 156.800
464.907 159.600
464.293 162.000
463.680 150.600
463.066 152.200
462.452 154.400
461.838 161.000
461.223 165.800
460.609 159.000
459.996 159.600
459.382 159.800
458.768 161.600
458.154 164.000
457.538 149.600
456.924 156.800
456.309 161.000
455.695 154.400
455.080 156.200
454.466 163.600
453.851 155.800
453.237 156.600
452.622 155.600
452.008 156.200
451.393 150.400
450.778 160.000
450.162 149.200
449.547 153.800
448.932 156.800
448.318 155.200
447.703 156.200
447.088 157.000
446.472 153.600
445.856 153.800
445.241 156.200
444.626 167.800
444.010 153.400
443.395 167.400
442.780 159.600
442.164 161.000
441.548 164.200
440.932 155.600
440.317 162.600
439.700 163.800
439.085 173.600
438.469 167.600
437.853 174.000
437.237 160.200
436.622 173.400
436.005 175.800
435.389 166.400
434.773 171.400
434.156 174.600
433.541 173.000
432.923 170.200
432.308 180.600
431.690 182.600
431.075 177.400
430.457 176.400
429.841 188.600
429.225 183.400
428.608 169.600
427.992 183.000
427.374 187.400
426.757 184.400
426.141 177.800
425.523 183.400
424.907 185.400
424.289 178.200
423.673 181.600
423.055 186.800
422.438 189.800
421.821 200.200
421.203 197.000
420.587 198.200
419.969 193.600
419.351 196.400
418.734 205.400
418.116 198.800
417.498 195.200
416.882 204.400
416.263 201.800
415.645 206.600
415.027 200.200
414.410 203.000
413.792 204.600
413.174 209.800
412.555 201.200
411.938 201.000
411.320 209.600
410.702 209.600
410.083 198.600
409.466 202.600
408.847 212.600
408.229 215.400
407.610 213.800
406.991 213.600
406.373 212.800
405.754 209.000
405.136 207.000
404.518 208.200
403.899 215.800
403.280 209.600
402.661 213.800
402.042 206.000
401.423 207.200
400.804 217.000
400.185 209.000
399.566 215.200
398.947 212.000
398.328 210.400
397.708 210.800
397.089 207.600
396.470 203.400
395.850 203.200
395.231 212.200
394.612 215.600
393.992 199.000
393.373 204.000
392.753 202.600
392.134 204.600
391.514 199.000
390.893 194.600
390.273 198.200
389.654 198.200
389.034 198.800
388.414 203.400
387.794 201.200
387.174 196.000
386.553 194.400
385.933 200.200
385.313 204.000
384.693 197.000
384.072 207.200
383.452 202.400
382.832 205.400
382.212 203.000
381.590 203.400
380.970 218.000
380.350 218.000
379.729 225.800
379.108 231.000
378.487 245.600
377.867 254.400
377.245 274.800
376.625 275.200
376.004 282.000
375.382 283.200
374.762 299.400
374.141 312.800
373.519 320.600
372.898 321.800
372.276 329.000
371.655 343.800
371.033 351.200
370.412 351.200
369.791 355.200
369.169 366.600
368.548 373.200
367.926 386.400
367.305 384.400
366.682 391.600
366.061 418.800
365.439 424.800
364.818 437.200
364.195 433.000
363.573 433.600
362.951 451.600
362.329 481.200
361.707 505.000
361.084 503.200
360.462 530.400
359.840 558.000
359.217 582.800
358.596 596.800
357.973 617.400
357.350 654.200
356.728 676.200
356.105 691.800
355.482 712.800
354.860 775.000
354.237 774.000
353.614 797.200
352.991 840.000
352.369 889.800
351.745 938.200
351.122 958.800
350.499 1023.200
349.876 1061.000
349.253 1097.000
348.629 1144.800
348.006 1190.800
347.382 1204.600
346.760 1244.400
346.136 1284.600
345.513 1378.000
344.889 1486.000
344.265 1608.800
343.641 1829.200
343.018 2104.800
342.395 2531.000
341.771 3105.600
341.147 3708.200
340.523 4233.600
339.899 4582.600
339.275 4743.000
338.651 4491.000
338.027 4115.000
337.403 3669.200
336.778 3228.000
336.154 2887.400
335.530 2540.200
334.905 2258.400
334.281 2000.600
333.657 1786.800
333.032 1597.400
332.408 1420.000
331.783 1292.400
331.159 1181.200
330.534 1060.800
329.909 968.400
329.285 891.000
328.659 797.800
328.034 739.200
327.409 689.200
326.784 658.800
326.159 605.200
325.535 577.800
324.910 533.800
324.283 527.600
323.658 502.200
323.033 482.400
322.408 463.400
321.783 435.600
321.157 435.000
320.531 425.000
319.906 423.400
319.281 404.000
318.654 407.200
318.029 406.000
317.403 415.600
316.777 409.600
316.151 413.400
315.526 414.600
314.899 433.000
314.273 419.200
313.648 421.000
313.021 426.200
312.395 428.200
311.769 414.400
311.142 420.400
310.516 416.800
309.889 410.800
309.263 416.600
308.637 412.800
308.010 416.600
307.384 420.600
306.757 413.400
306.131 409.000
305.503 413.600
304.877 405.800
304.249 415.000
303.623 413.800
302.996 432.400
302.369 432.400
301.742 413.600
301.115 437.400
300.487 437.200
299.861 446.400
299.233 456.400
298.605 454.600
297.979 482.600
297.351 502.200
296.724 519.600
296.096 534.400
295.468 557.200
294.841 588.200
294.213 623.800
293.585 641.600
292.958 699.800
292.330 723.400
291.702 803.000
291.075 841.400
290.446 873.200
289.818 898.400
289.189 911.000
288.562 906.000
287.934 873.800
287.305 833.200
286.677 767.000
286.049 721.400
285.421 679.000
284.792 615.600
284.163 597.800
283.534 572.800
282.907 518.400
282.278 504.200
281.649 499.800
281.020 490.600
280.391 464.000
279.762 444.000
279.133 429.600
278.505 439.600
277.876 435.600
277.247 408.800
276.618 402.400
275.989 414.000
275.359 386.200
274.730 390.400
274.101 383.400
273.471 372.200
272.842 365.400
272.212 360.600
271.583 368.600
270.953 341.400
270.324 325.600
269.694 334.400
269.065 330.600
268.435 337.600
267.805 334.200
267.175 340.000
266.545 323.400
265.916 330.400
265.284 339.400
264.655 342.400
264.025 339.400
263.395 324.600
262.764 339.600
262.134 344.400
261.504 340.600
260.873 346.800
260.243 338.200
259.612 342.200
258.982 318.800
258.352 344.600
257.720 341.200
257.090 343.200
256.459 344.000
255.829 340.400
255.197 335.600
254.566 344.000
253.936 349.400
253.305 332.000
252.673 324.200
252.042 325.000
251.412 317.600
250.780 317.400
250.149 305.200
249.518 292.000
248.886 293.600
248.255 287.600
247.624 287.400
246.992 268.800
246.360 265.000
245.728 256.400
245.097 250.000
244.466 246.800
243.833 242.200
243.202 243.200
242.569 234.000
241.938 230.400
241.305 223.400
240.674 207.600
240.041 229.600
239.410 220.200
238.777 195.400
238.145 212.400
237.512 189.200
236.881 207.400
236.248 208.800
235.616 188.200
234.983 192.600
234.351 197.000
233.718 187.400
233.085 181.200
232.453 176.400
231.820 174.600
231.186 187.000
230.554 183.400
229.921 183.800
229.289 182.000
228.655 173.800
228.022 181.800
227.390 174.800
226.756 176.000
226.123 175.200
225.489 178.000
224.856 178.800
224.223 174.200
223.589 171.800
222.955 170.400
222.323 174.200
221.689 176.800
221.055 176.000
220.421 171.600
219.788 175.000
219.154 169.800
218.520 175.000
217.886 168.400
217.252 169.600
216.618 160.000
215.985 176.200
215.350 167.000
214.716 164.800
214.082 159.800
213.447 160.600
212.813 164.600
212.178 154.600
