834.788 130.000
834.204 128.200
833.621 133.200
833.037 131.600
832.453 136.000
831.870 129.800
831.286 134.400
830.702 133.200
830.118 129.800
829.535 129.200
828.950 134.400
828.367 130.200
827.782 133.800
827.198 139.200
826.615 132.600
826.030 135.400
825.446 135.400
824.861 134.300
824.277 132.600
823.692 132.000
823.109 129.600
822.523 130.800
821.940 127.200
821.354 134.200
820.770 130.000
820.185 136.000
819.601 133.800
819.016 135.600
818.431 137.200
817.846 131.400
817.261 135.600
816.677 141.400
816.091 126.600
815.506 130.200
814.922 141.400
814.336 133.800
813.750 132.400
813.166 133.000
812.580 139.800
811.995 129.200
811.410 134.600
810.824 133.000
810.239 132.200
809.653 139.600
809.068 135.800
808.482 134.400
807.896 133.200
807.310 136.800
806.724 132.200
806.139 129.000
805.553 133.400
804.967 139.400
804.381 129.200
803.795 129.400
803.209 134.000
802.624 132.200
802.037 138.800
801.451 129.400
800.865 123.600
800.278 124.400
799.692 134.000
799.105 130.600
798.519 128.400
797.932 132.000
797.346 132.600
796.759 137.800
796.173 130.000
795.586 133.800
794.999 136.000
794.412 134.200
793.826 134.000
793.239 130.400
792.652 130.400
792.065 135.800
791.478 134.200
790.891 136.600
790.303 125.200
789.716 125.800
789.129 125.000
788.542 136.000
787.955 137.800
787.368 130.200
786.781 134.800
786.192 138.400
785.605 135.600
785.018 131.200
784.430 136.200
783.842 139.400
783.254 128.000
782.667 131.400
782.079 134.000
781.491 136.200
780.903 138.000
780.316 127.000
779.727 141.400
779.139 134.400
778.551 142.000
777.963 134.800
777.375 131.800
776.787 134.200
776.198 136.600
775.610 135.400
775.022 139.800
774.433 126.200
773.845 132.400
773.256 132.400
772.668 140.400
772.079 139.600
771.491 138.600
770.901 134.800
770.313 139.000
769.724 132.200
769.136 138.600
768.546 138.600
767.958 143.400
767.368 137.800
766.780 142.200
766.190 135.200
765.602 138.800
765.012 134.800
764.422 136.400
763.834 138.400
763.244 137.800
762.655 144.600
762.066 141.400
761.476 136.200
760.887 140.600
760.297 143.400
759.707 141.200
759.117 136.600
758.528 131.800
757.938 136.800
757.348 132.600
756.759 137.000
756.169 144.600
755.578 137.200
754.988 142.400
754.398 143.800
753.809 143.800
753.218 133.600
752.628 148.800
752.037 143.000
751.447 143.400
750.858 139.200
750.267 147.800
749.676 144.000
749.086 140.600
748.495 142.400
747.904 148.600
747.314 148.000
746.723 145.200
746.132 144.600
745.541 151.000
744.950 148.200
744.360 148.000
743.769 141.000
743.178 150.800
742.587 146.000
741.996 142.400
741.404 142.800
740.813 137.400
740.222 144.800
739.631 149.800
739.040 150.800
738.449 151.200
737.857 142.000
737.266 149.600
736.674 148.200
736.083 145.800
735.490 147.000
734.899 149.800
734.307 144.200
733.716 151.400
733.124 148.400
732.533 153.400
731.940 155.400
731.348 148.600
730.756 148.600
730.165 149.800
729.572 150.600
728.980 152.400
728.388 145.000
727.796 155.400
727.203 151.600
726.611 151.000
726.019 150.800
725.426 156.400
724.834 151.600
724.242 149.000
723.648 143.400
723.056 154.400
722.464 146.400
721.870 149.600
721.278 155.400
720.685 147.400
720.092 152.800
719.500 154.800
718.906 154.200
718.314 151.000
717.720 149.600
717.127 148.600
716.534 161.400
715.941 160.800
715.347 151.200
714.755 161.000
714.161 156.400
713.568 154.600
712.974 159.800
712.380 163.000
711.787 162.200
711.193 149.600
710.600 161.800
710.006 164.000
709.412 162.200
708.819 161.400
708.224 166.800
707.631 164.400
707.037 176.200
706.443 177.000
705.848 174.600
705.255 181.800
704.660 176.000
704.066 212.200
703.472 183.600
702.878 189.200
702.283 182.000
701.689 170.800
701.095 189.600
700.500 200.400
699.906 194.800
699.311 194.200
698.716 185.200
698.122 201.400
697.527 200.800
696.932 198.400
696.337 206.600
695.742 205.600
695.147 215.600
694.552 208.000
693.957 199.600
693.363 208.600
692.768 213.400
692.173 217.000
691.578 212.400
690.982 214.600
690.387 205.000
689.791 211.800
689.196 212.200
688.601 222.200
688.005 209.800
687.410 224.400
686.814 211.800
686.218 223.200
685.623 212.600
685.027 216.000
684.431 220.000
683.835 225.600
683.239 225.200
682.643 220.600
682.047 235.800
681.451 223.800
680.855 231.400
680.259 230.600
679.663 237.800
679.066 236.800
678.470 246.800
677.874 249.200
677.278 247.800
676.682 259.000
676.084 254.400
675.488 257.600
674.892 272.400
674.296 263.600
673.698 278.800
673.102 275.800
672.505 285.800
671.908 287.000
671.311 284.600
670.715 285.400
670.117 305.200
669.520 288.400
668.924 296.600
668.326 294.400
667.729 292.400
667.132 280.400
666.534 276.600
665.937 289.200
665.339 286.600
664.743 267.200
664.146 271.600
663.548 256.400
662.950 253.400
662.352 240.800
661.755 253.400
661.157 244.600
660.560 244.600
659.961 247.600
659.364 233.600
658.766 225.000
658.168 236.000
657.570 218.000
656.971 232.600
656.374 223.200
655.775 223.800
655.178 207.000
654.579 224.400
653.980 210.200
653.383 208.600
652.784 220.600
652.185 212.200
651.588 216.800
650.989 217.400
650.390 207.200
649.792 212.200
649.193 212.800
648.594 201.400
647.996 207.400
647.397 198.400
646.798 209.800
646.199 197.800
645.599 207.200
645.001 205.000
644.402 204.200
643.803 202.000
643.203 195.000
642.604 202.200
642.006 216.200
641.406 198.200
640.806 195.800
640.207 198.800
639.607 206.800
639.008 196.600
638.408 199.200
637.808 191.800
637.210 193.600
636.610 189.800
636.010 188.600
635.410 197.000
634.810 199.000
634.211 187.800
633.611 186.600
633.011 180.400
632.411 186.800
631.810 196.000
631.210 180.800
630.610 175.200
630.010 196.000
629.410 188.800
628.808 182.600
628.208 187.200
627.608 177.800
627.007 198.000
626.407 179.800
625.807 185.800
625.206 182.000
624.606 188.600
624.004 192.200
623.403 189.600
622.803 184.200
622.202 187.600
621.601 197.000
620.999 195.800
620.399 187.600
619.798 185.800
619.197 189.400
618.596 185.600
617.994 182.800
617.393 194.600
616.792 182.000
616.190 188.200
615.589 184.600
614.988 188.000
614.385 180.600
613.784 188.000
613.183 182.400
612.581 179.600
611.979 180.200
611.378 182.600
610.776 177.400
610.174 179.600
609.572 177.600
608.970 185.600
608.369 189.400
607.766 173.000
607.164 182.200
606.561 187.600
605.960 176.200
605.357 182.800
604.755 180.000
604.152 175.200
603.551 183.200
602.948 173.000
602.346 181.600
601.743 176.800
601.139 179.600
600.537 181.000
599.934 177.000
599.332 175.400
598.729 175.800
598.126 179.600
597.524 171.800
596.920 175.000
596.318 175.200
595.715 171.200
595.111 180.800
594.509 170.800
593.905 171.200
593.301 169.000
592.698 171.000
592.095 178.200
591.492 169.400
590.888 171.000
590.285 174.600
589.681 168.400
589.078 159.000
588.474 166.800
587.870 170.800
587.267 161.200
586.663 170.800
586.059 158.800
585.455 161.600
584.851 160.400
584.247 163.400
583.644 156.600
583.039 156.400
582.435 161.200
581.831 158.800
581.227 166.600
580.622 158.400
580.018 158.800
579.413 148.000
578.809 157.800
578.204 154.000
577.600 158.400
576.995 150.200
576.390 155.200
575.786 147.600
575.181 151.200
574.576 145.600
573.972 150.800
573.367 153.000
572.762 155.200
572.157 147.200
571.552 146.400
570.947 143.800
570.342 152.400
569.737 152.200
569.131 156.000
568.526 152.000
567.921 154.000
567.315 140.800
566.710 149.600
566.105 152.200
565.498 155.000
564.893 143.800
564.288 143.400
563.682 144.800
563.077 151.400
562.470 137.000
561.865 138.200
561.259 149.000
560.654 150.800
560.047 142.600
559.441 145.400
558.835 143.200
558.228 147.600
557.623 145.600
557.017 145.800
556.410 138.600
555.804 148.600
555.198 146.200
554.591 144.800
553.985 146.400
553.379 145.400
552.772 150.600
552.165 138.400
551.558 144.600
550.952 145.000
550.344 148.000
549.738 142.000
549.131 147.400
548.524 150.400
547.918 146.400
547.310 145.200
546.704 149.200
546.096 154.000
545.489 152.200
544.882 144.200
544.274 145.200
543.668 149.600
543.060 141.800
542.453 145.800
541.845 144.600
541.237 146.000
540.630 154.600
540.022 148.600
539.415 149.000
538.807 151.600
538.199 146.600
537.592 150.200
536.984 145.400
536.376 145.400
535.768 143.800
535.160 143.400
534.552 145.200
533.943 148.400
533.336 139.400
532.728 145.600
532.119 150.200
531.510 149.600
530.903 144.400
530.294 144.200
529.686 143.800
529.077 139.000
528.468 151.200
527.859 147.400
527.252 143.800
526.643 146.000
526.034 141.600
525.425 140.600
524.816 143.800
524.207 144.200
523.598 143.200
522.989 147.000
522.380 146.000
521.772 140.200
521.163 141.600
520.553 149.800
519.944 143.600
519.335 150.000
518.725 145.200
518.116 142.200
517.507 144.000
516.897 143.400
516.288 148.600
515.678 150.400
515.069 149.000
514.458 140.000
513.848 148.200
513.238 153.800
512.629 152.700
512.019 151.400
511.409 154.800
510.799 148.000
510.189 148.400
509.579 152.200
508.968 143.800
508.358 142.800
507.748 148.600
507.138 154.600
506.528 154.800
505.918 157.200
505.307 153.600
504.696 155.000
504.086 149.000
503.476 155.800
502.864 154.200
502.254 156.400
501.644 157.200
501.032 156.400
500.421 155.600
499.811 164.800
499.200 154.600
498.589 152.800
497.978 156.600
497.367 164.600
496.755 164.000
496.145 160.400
495.533 162.800
494.922 170.600
494.311 159.800
493.699 168.400
493.088 155.600
492.476 172.200
491.865 170.000
491.253 171.600
490.641 185.400
490.029 171.600
489.418 185.800
488.806 188.600
488.194 190.400
487.582 189.400
486.971 196.800
486.358 209.400
485.747 200.200
485.134 206.800
484.523 224.000
483.910 223.200
483.298 248.400
482.686 254.800
482.073 261.600
481.461 280.800
480.848 289.800
480.235 319.600
479.624 352.400
479.011 381.400
478.398 395.200
477.786 408.800
477.173 439.000
476.560 441.800
475.948 441.000
475.334 416.200
474.721 403.600
474.108 411.600
473.496 376.200
472.882 366.200
472.269 352.400
471.655 345.400
471.043 317.200
470.430 312.200
469.816 311.000
469.202 304.600
468.589 277.400
467.975 255.000
467.363 270.400
466.749 257.000
466.135 247.400
465.521 241.200
464.907 220.200
464.293 227.000
463.680 220.400
463.066 223.600
462.452 222.200
461.838 209.400
461.223 199.000
460.609 193.200
459.996 187.000
459.382 193.600
458.768 182.600
458.154 199.600
457.538 177.000
456.924 178.600
456.309 171.800
455.695 173.600
455.080 175.600
454.466 176.400
453.851 179.000
453.237 167.200
452.622 167.800
452.008 167.200
451.393 169.000
450.778 169.800
450.162 165.400
449.547 167.000
448.932 164.000
448.318 162.400
447.703 162.800
447.088 163.200
446.472 159.000
445.856 165.400
445.241 170.600
444.626 164.800
444.010 173.800
443.395 153.600
442.780 157.800
442.164 151.400
441.548 159.000
440.932 151.400
440.317 164.600
439.700 155.400
439.085 160.400
438.469 158.600
437.853 170.200
437.237 164.200
436.622 167.000
436.005 161.600
435.389 173.600
434.773 164.000
434.156 168.200
433.541 168.400
432.923 164.800
432.308 170.200
431.690 169.600
431.075 170.800
430.457 175.400
429.841 173.800
429.225 179.000
428.608 174.400
427.992 170.200
427.374 185.800
426.757 175.000
426.141 179.800
425.523 177.000
424.907 186.600
424.289 170.000
423.673 158.800
423.055 180.800
422.438 173.800
421.821 181.600
421.203 184.000
420.587 182.800
419.969 190.200
419.351 187.800
418.734 195.800
418.116 194.800
417.498 190.400
416.882 188.600
416.263 186.400
415.645 198.600
415.027 195.800
414.410 194.600
413.792 195.600
413.174 193.400
412.555 209.400
411.938 208.200
411.320 204.600
410.702 192.800
410.083 196.400
409.466 195.200
408.847 199.000
408.229 197.400
407.610 206.600
406.991 198.800
406.373 204.400
405.754 189.800
405.136 201.400
404.518 194.800
403.899 189.400
403.280 200.200
402.661 204.200
402.042 205.200
401.423 203.800
400.804 198.000
400.185 198.800
399.566 205.800
398.947 204.800
398.328 194.000
397.708 205.600
397.089 203.800
396.470 197.800
395.850 191.000
395.231 202.800
394.612 197.000
393.992 195.600
393.373 195.200
392.753 202.800
392.134 195.800
391.514 203.800
390.893 190.200
390.273 192.400
389.654 189.400
389.034 192.000
388.414 191.600
387.794 190.600
387.174 187.400
386.553 193.200
385.933 195.400
385.313 194.000
384.693 193.400
384.072 189.400
383.452 205.600
382.832 196.800
382.212 200.200
381.590 198.400
380.970 209.400
380.350 210.200
379.729 208.200
379.108 219.600
378.487 225.400
377.867 240.200
377.245 254.600
376.625 251.400
376.004 257.600
375.382 275.800
374.762 286.600
374.141 290.800
373.519 297.400
372.898 310.000
372.276 321.600
371.655 317.800
371.033 332.800
370.412 335.400
369.791 336.400
369.169 354.000
368.548 369.000
367.926 357.800
367.305 375.200
366.682 382.800
366.061 393.800
365.439 401.000
364.818 414.000
364.195 418.800
363.573 423.200
362.951 438.600
362.329 456.000
361.707 463.600
361.084 466.000
360.462 507.000
359.840 522.600
359.217 533.400
358.596 571.800
357.973 577.600
357.350 594.200
356.728 614.800
356.105 655.200
355.482 638.200
354.860 665.600
354.237 720.400
353.614 710.200
352.991 748.400
352.369 813.000
351.745 874.000
351.122 884.200
350.499 934.000
349.876 967.200
349.253 1045.200
348.629 1065.600
348.006 1117.000
347.382 1149.800
346.760 1162.800
346.136 1217.400
345.513 1236.200
344.889 1321.600
344.265 1366.400
343.641 1508.200
343.018 1707.800
342.395 1961.000
341.771 2382.600
341.147 2877.400
340.523 3413.000
339.899 3914.400
339.275 4287.600
338.651 4326.600
338.027 4116.000
337.403 3800.200
336.778 3345.000
336.154 2898.000
335.530 2594.600
334.905 2275.000
334.281 2016.000
333.657 1820.800
333.032 1615.800
332.408 1441.200
331.783 1307.600
331.159 1200.600
330.534 1040.200
329.909 982.200
329.285 889.400
328.659 808.800
328.034 767.800
327.409 683.400
326.784 644.200
326.159 604.600
325.535 559.600
324.910 534.000
324.283 510.800
323.658 491.800
323.033 459.200
322.408 440.200
321.783 425.200
321.157 407.800
320.531 401.000
319.906 402.000
319.281 393.600
318.654 387.200
318.029 390.400
317.403 377.600
316.777 384.400
316.151 391.600
315.526 384.800
314.899 392.200
314.273 399.600
313.648 387.800
313.021 390.600
312.395 394.600
311.769 390.400
311.142 401.200
310.516 398.400
309.889 382.200
309.263 374.000
308.637 383.400
308.010 394.200
307.384 384.800
306.757 394.200
306.131 379.400
305.503 405.200
304.877 386.800
304.249 387.800
303.623 382.800
302.996 393.400
302.369 411.600
301.742 407.800
301.115 396.000
300.487 412.400
299.861 414.400
299.233 417.400
298.605 420.400
297.979 437.600
297.351 464.400
296.724 449.200
296.096 483.600
295.468 503.800
294.841 540.400
294.213 554.600
293.585 601.600
292.958 614.000
292.330 669.600
291.702 715.200
291.075 736.800
290.446 782.800
289.818 811.000
289.189 839.200
288.562 855.400
287.934 849.200
287.305 831.200
286.677 755.600
286.049 755.800
285.421 681.800
284.792 656.000
284.163 608.400
283.534 573.000
282.907 518.600
282.278 500.200
281.649 481.600
281.020 457.200
280.391 456.800
279.762 439.600
279.133 433.800
278.505 404.600
277.876 402.400
277.247 406.600
276.618 391.200
275.989 388.800
275.359 376.600
274.730 373.600
274.101 388.400
273.471 359.200
272.842 342.200
272.212 354.200
271.583 343.800
270.953 355.600
270.324 333.600
269.694 342.400
269.065 344.800
268.435 323.600
267.805 328.600
267.175 316.200
266.545 325.600
265.916 325.800
265.284 329.400
264.655 313.600
264.025 336.400
263.395 316.800
262.764 312.400
262.134 317.200
261.504 334.000
260.873 328.200
260.243 323.600
259.612 334.400
258.982 328.800
258.352 316.800
257.720 340.400
257.090 337.400
256.459 339.400
255.829 341.600
255.197 332.600
254.566 339.200
253.936 343.800
253.305 325.000
252.673 331.000
252.042 323.800
251.412 329.000
250.780 316.000
250.149 318.400
249.518 293.400
248.886 290.400
248.255 294.200
247.624 272.200
246.992 280.200
246.360 275.400
245.728 258.600
245.097 249.000
244.466 241.400
243.833 241.600
243.202 243.000
242.569 225.600
241.938 230.200
241.305 225.600
240.674 205.600
240.041 208.200
239.410 208.200
238.777 213.400
238.145 206.600
237.512 198.400
236.881 199.200
236.248 200.200
235.616 190.800
234.983 184.200
234.351 192.600
233.718 187.600
233.085 184.000
232.453 192.400
231.820 182.400
231.186 188.000
230.554 173.800
229.921 177.200
229.289 175.600
228.655 172.400
228.022 167.600
227.390 161.600
226.756 164.800
226.123 167.800
225.489 171.800
224.856 171.600
224.223 168.200
223.589 177.200
222.955 166.600
222.323 165.000
221.689 157.800
221.055 172.600
220.421 164.800
219.788 160.600
219.154 180.600
218.520 177.600
217.886 161.200
217.252 165.400
216.618 178.200
215.985 165.000
215.350 167.800
214.716 162.800
214.082 170.000
213.447 159.800
212.813 166.200
212.178 159.000
